t,u,Ca,w0,w1,w2,w3,w4,w5,w6,w7,w8,w9,w10,w11,w12,w13,w14,w15,w16,w17,
0.000000000000000,-0.084000000000000,0.100000000000000,0.000000000000000,0.750000000000000,0.750000000000000,0.000000000000000,1.000000000000000,0.000000000000000,1.000000000000000,0.000000000000000,0.000000000000000,1.000000000000000,1.000000000000000,1.000000000000000,0.100000000000000,3.350000000000000,0.000070000000000,7.670000000000000,138.300000000000011,1.000000000000000,
0.000010000000000,-0.083814541521430,0.099999979954235,0.001782438788979,0.749976563226490,0.749997401555535,0.000000025894146,0.996225525628751,0.000000238176190,0.999999998276750,0.000000000039991,0.000000540598701,0.999999997071058,0.999999791046831,0.999999999921779,0.099999979954235,3.349998545714784,0.000070000191201,7.670000141718345,138.300021778720804,0.999999978513959,
0.000020000000000,-0.083511469208924,0.099999954845864,0.002592445374805,0.749930823261701,0.749992240873705,0.000000068928723,0.990130988332752,0.000000637391009,0.999999995278806,0.000000000108288,0.000001452084547,0.999999992035383,0.999999431913966,0.999999999793788,0.099999954845864,3.349996165978912,0.000070000522045,7.670000366388289,138.300057373994150,0.999999943356558,
0.000030000000000,-0.083167518370515,0.099999935035380,0.002715449378933,0.749870946250964,0.749985382756499,0.000000118591007,0.983317086562859,0.000001101964435,0.999999991662900,0.000000000189208,0.000002513189508,0.999999986027290,0.999999003620087,0.999999999648357,0.099999935035380,3.349993461739220,0.000070000919209,7.670000613296736,138.300097775953759,0.999999903406737,
0.000040000000000,-0.082819149617129,0.099999923770694,0.002820142656720,0.749802739498457,0.749977463986502,0.000000169734443,0.976533476445110,0.000001584369637,0.999999987775627,0.000000000274715,0.000003611121362,0.999999979633019,0.999998548036731,0.999999999500884,0.099999923770694,3.349990719264819,0.000070001343983,7.670000855203795,138.300138702480268,0.999999862893751,
0.000050000000000,-0.082475616015786,0.099999921346050,0.003019697289925,0.749728578490072,0.749968745323931,0.000000221012371,0.969964106454680,0.000002072030415,0.999999983709800,0.000000000362675,0.000004715905643,0.999999973008289,0.999998076292455,0.999999999355292,0.099999921346050,3.349988011464332,0.000070001785349,7.670001085725749,138.300179066491381,0.999999822894609,
0.000060000000000,-0.082136183256266,0.099999927536297,0.003247783108289,0.749649045409637,0.749959286350382,0.000000272527603,0.963588126623380,0.000002565962247,0.999999979450545,0.000000000453360,0.000005831037081,0.999999966130909,0.999997586814665,0.999999999211278,0.099999927536297,3.349985332685830,0.000070002243905,7.670001305582579,138.300218954112978,0.999999783325758,
0.000070000000000,-0.081798704265670,0.099999942232727,0.003481824069764,0.749564276214779,0.749949098601910,0.000000324606847,0.957357136296112,0.000003069368150,0.999999974962501,0.000000000547466,0.000006965721859,0.999999958946104,0.999997075706619,0.999999999067933,0.099999942232727,3.349982666077145,0.000070002722466,7.670001516306942,138.300258617551407,0.999999743938222,
0.000080000000000,-0.081461945790022,0.099999965425778,0.003729368329983,0.749474487745026,0.749938207313851,0.000000377449606,0.951242354327032,0.000003584283955,0.999999970218560,0.000000000645501,0.000008126281854,0.999999951412754,0.999996540049149,0.999999998924736,0.099999965425778,3.349980001942395,0.000070003223002,7.670001718729467,138.300298201700855,0.999999704588749,
0.000090000000000,-0.081125511816518,0.099999997120017,0.003995320902581,0.749380032567323,0.749926657938855,0.000000431131258,0.945232495094214,0.000004111569571,0.999999965201281,0.000000000747765,0.000009315995601,0.999999943505022,0.999995978015914,0.999999998781520,0.099999997120017,3.349977337176084,0.000070003746485,7.670001913114199,138.300337753085387,0.999999665231443,
0.000100000000000,-0.080789372790974,0.100000037305836,0.004279688084430,0.749281322618077,0.749914506644817,0.000000485670974,0.939323891691633,0.000004651544062,0.999999959897936,0.000000000854462,0.000010536716930,0.999999935204103,0.999995388283678,0.999999998638273,0.100000037305836,3.349974671565445,0.000070004293403,7.670002099496671,138.300377275158837,0.999999625863134,
0.000110000000000,-0.080453580176604,0.100000085963780,0.004582481962337,0.749178767489105,0.749901812297701,0.000000541075048,0.933514612340967,0.000005204401363,0.999999954296883,0.000000000965778,0.000011789986466,0.999999926492349,0.999994769613177,0.999999998495018,0.100000085963780,3.349972005540285,0.000070004864137,7.670002277868518,138.300416761847771,0.999999586490141,
0.000120000000000,-0.080118170341556,0.100000143072690,0.004904793517373,0.749072749876370,0.749888632857918,0.000000597352182,0.927802511415467,0.000005770360058,0.999999948386157,0.000000001081912,0.000013077449111,0.999999917350990,0.999994120686036,0.999999998351772,0.100000143072690,3.349969339413371,0.000070005459107,7.670002448233821,138.300456208850107,0.999999547117053,
0.000130000000000,-0.079783155190064,0.100000208613028,0.005248013287374,0.748963622432368,0.749875024381794,0.000000654515226,0.922185054394307,0.000006349681704,0.999999942153263,0.000000001203079,0.000014400910866,0.999999907759762,0.999993440078482,0.999999998208542,0.100000208613028,3.349966673306159,0.000070006078802,7.670002610612539,138.300495614737855,0.999999507745636,
0.000140000000000,-0.079448533605576,0.100000282566789,0.005613424419131,0.748851711099879,0.749861040836502,0.000000712579454,0.916659556678671,0.000006942654226,0.999999935585355,0.000000001329510,0.000015762294390,0.999999897697098,0.999992726274931,0.999999998065327,0.100000282566789,3.349964007239639,0.000070006723758,7.670002765033149,138.300534979612081,0.999999468376170,
0.000150000000000,-0.079114300401719,0.100000364916569,0.006002253870603,0.748737318380690,0.749846733935990,0.000000771561117,0.911223364193409,0.000007549577666,0.999999928669394,0.000000001461446,0.000017163599327,0.999999887140299,0.999991977680594,0.999999997922128,0.100000364916569,3.349961341205654,0.000070007394554,7.670002911527726,138.300574304050372,0.999999429008505,
0.000160000000000,-0.078780449923964,0.100000455644966,0.006415774453009,0.748620725258263,0.749832152851150,0.000000831476852,0.905873922287833,0.000008170758119,0.999999921392236,0.000000001599142,0.000018606886051,0.999999876065592,0.999991192625345,0.999999997778944,0.100000455644966,3.349958675195760,0.000070008091797,7.670003050130410,138.300613588682694,0.999999389642485,
0.000170000000000,-0.078446976710245,0.100000554734394,0.006855329848150,0.748502192236741,0.749817343863625,0.000000892343566,0.900608784411447,0.000008806506562,0.999999913740669,0.000000001742863,0.000020094274115,0.999999864448100,0.999990369361841,0.999999997635774,0.100000554734394,3.349956009206634,0.000070008816127,7.670003180877507,138.300652834113379,0.999999350278033,
0.000180000000000,-0.078113875257427,0.100000662167104,0.007322324041532,0.748381960049037,0.749802350042457,0.000000954178492,0.895425602906434,0.000009457139313,0.999999905701425,0.000000001892886,0.000021627945833,0.999999852261781,0.999989506061460,0.999999997492619,0.100000662167104,3.349953343238258,0.000070009568215,7.670003303808113,138.300692040948093,0.999999310915115,
0.000190000000000,-0.077781139756256,0.100000777925253,0.007818213236502,0.748260250304362,0.749787210984837,0.000001016999251,0.890322119465615,0.000010122978623,0.999999897261192,0.000000002049501,0.000023210150392,0.999999839479372,0.999988600809848,0.999999997349478,0.100000777925253,3.349950677291784,0.000070010348768,7.670003418964762,138.300731209824505,0.999999271553719,
0.000200000000000,-0.077448763970529,0.100000901990951,0.008344505029414,0.748137266145549,0.749771962633960,0.000001080823888,0.885296158722073,0.000010804353031,0.999999888406626,0.000000002213011,0.000024843207348,0.999999826072317,0.999987651602524,0.999999997206351,0.100000901990951,3.349948011368515,0.000070011158523,7.670003526394108,138.300770341425789,0.999999232193832,
0.000210000000000,-0.077116741214783,0.100001034346282,0.008902759348926,0.748013192911689,0.749756637174340,0.000001145670900,0.880345623986897,0.000011501597560,0.999999879124354,0.000000002383735,0.000026529509642,0.999999812010711,0.999986656340509,0.999999997063239,0.100001034346282,3.349945345469625,0.000070011998256,7.670003626147685,138.300809436482524,0.999999192835440,
0.000220000000000,-0.076785064368770,0.100001174973320,0.009494588423621,0.747888198791394,0.749741263000431,0.000001211559252,0.875468493877368,0.000012215053844,0.999999869400984,0.000000002562005,0.000028271526477,0.999999797263231,0.999985612825826,0.999999996920140,0.100001174973320,3.349942679596186,0.000070012868778,7.670003718282783,138.300848495770197,0.999999153478525,
0.000230000000000,-0.076453725897205,0.100001323854141,0.010121655880849,0.747762435459489,0.749725864752517,0.000001278508394,0.870662819210219,0.000012945070239,0.999999859223106,0.000000002748170,0.000030071806251,0.999999781797072,0.999984518756807,0.999999996777055,0.100001323854141,3.349940013749220,0.000070013770934,7.670003802863480,138.300887520105732,0.999999114123071,
0.000240000000000,-0.076122717865450,0.100001480970830,0.010785675526131,0.747636038696483,0.749710463412271,0.000001346538282,0.865926719986058,0.000013692001951,0.999999848577289,0.000000002942594,0.000031932979596,0.999999765577876,0.999983371723157,0.999999996633984,0.100001480970830,3.349937347929743,0.000070014705610,7.670003879961856,138.300926510344510,0.999999074769059,
0.000250000000000,-0.075792031950549,0.100001646305494,0.011488409963558,0.747509128992797,0.749695076449017,0.000001415669398,0.861258382463459,0.000014456211169,0.999999837450074,0.000000003145661,0.000033857762558,0.999999748569654,0.999982169200765,0.999999996490927,0.100001646305494,3.349934682138766,0.000070015673730,7.670003949659411,138.300965467377637,0.999999035416470,
0.000260000000000,-0.075461659448604,0.100001819840278,0.012231668994254,0.747381812140012,0.749679718006726,0.000001485922769,0.856656056349137,0.000015238067201,0.999999825827962,0.000000003357770,0.000035848959875,0.999999730734714,0.999980908546258,0.999999996347882,0.100001819840278,3.349932016377304,0.000070016676255,7.670004012048731,138.301004392129386,0.999998996065286,
0.000270000000000,-0.075131591278945,0.100002001557366,0.013017307730891,0.747254179810978,0.749664399121355,0.000001557319996,0.852118052117383,0.000016037946614,0.999999813697396,0.000000003579341,0.000037909468386,0.999999712033572,0.999979586991284,0.999999996204851,0.100002001557366,3.349929350646369,0.000070017714188,7.670004067235416,138.301043285554783,0.999998956715486,
0.000280000000000,-0.074801817984950,0.100002191439003,0.013847224417788,0.747126310130054,0.749649127958337,0.000001629883268,0.847642738458655,0.000016856233384,0.999999801044740,0.000000003810813,0.000040042280552,0.999999692424874,0.999978201636509,0.999999996061833,0.100002191439003,3.349926684946973,0.000070018788575,7.670004115340329,138.301082148637164,0.999998917367050,
0.000290000000000,-0.074472329731097,0.100002389467500,0.014723357970663,0.746998268234430,0.749633910060679,0.000001703635399,0.843228539851415,0.000017693319039,0.999999787856253,0.000000004052648,0.000042250488105,0.999999671865301,0.999976749445318,0.999999995918828,0.100002389467500,3.349924019280125,0.000070019900501,7.670004156502204,138.301120982386067,0.999998878019958,
0.000300000000000,-0.074143116295746,0.100002595625246,0.015647685252757,0.746870106827118,0.749618748599174,0.000001778599842,0.838873934250215,0.000018549602813,0.999999774118050,0.000000004305329,0.000044537285830,0.999999650309477,0.999975227237206,0.999999995775836,0.100002595625246,3.349921353646832,0.000070021051096,7.670004190880649,138.301159787834990,0.999998838674188,
0.000310000000000,-0.073814167059175,0.100002809894719,0.016622218103377,0.746741866721987,0.749603644617542,0.000001854800724,0.834577450883584,0.000019425491798,0.999999759816073,0.000000004569361,0.000046905975492,0.999999627709869,0.999973631680831,0.999999995632857,0.100002809894719,3.349918688048100,0.000070022241535,7.670004218659612,138.301198566039233,0.999998799329717,
0.000320000000000,-0.073485470986371,0.100003032258499,0.017649000137825,0.746613577380936,0.749588597266667,0.000001932262875,0.830337668155975,0.000020321401112,0.999999744936041,0.000000004845275,0.000049359969911,0.999999604016685,0.999971959286724,0.999999995489890,0.100003032258499,3.349916022484930,0.000070023473038,7.670004240051370,138.301237318073959,0.999998759986524,
0.000330000000000,-0.073157016604044,0.100003262699280,0.018730103343355,0.746485257443089,0.749573604023524,0.000002011011852,0.826153211648554,0.000021237754054,0.999999729463407,0.000000005133628,0.000051902797203,0.999999579177765,0.999970206399639,0.999999995346935,0.100003262699280,3.349913356958325,0.000070024746872,7.670004255301108,138.301276045032409,0.999998720644584,
0.000340000000000,-0.072828791971324,0.100003501199879,0.019867624502047,0.746356915245676,0.749558660891704,0.000002091073977,0.822022752213973,0.000022174982282,0.999999713383301,0.000000005435004,0.000054538105199,0.999999553138468,0.999968369190503,0.999999995203992,0.100003501199879,3.349910691469280,0.000070026064352,7.670004264692135,138.301314748023941,0.999998681303872,
0.000350000000000,-0.072500784643499,0.100003747743253,0.021063681477608,0.746228549336067,0.749543762581644,0.000002172476368,0.817945004160543,0.000023133525988,0.999999696680478,0.000000005750015,0.000057269666046,0.999999525841552,0.999966443647978,0.999999995061062,0.100003747743253,3.349908026018792,0.000070027426843,7.670004268551868,138.301353428172291,0.999998641964365,
0.000360000000000,-0.072172981628131,0.100004002312508,0.022320409408892,0.746100148974228,0.749528902669678,0.000002255246973,0.813918723521461,0.000024113834083,0.999999679339253,0.000000006079304,0.000060101381018,0.999999497227050,0.999964425569580,0.999999994918143,0.100004002312508,3.349905360607855,0.000070028835758,7.670004267258608,138.301392086613987,0.999998602626037,
0.000370000000000,-0.071845369332804,0.100004264890921,0.023639956858503,0.745971694624758,0.749514073735900,0.000002339414611,0.809942706404998,0.000025116364388,0.999999661343436,0.000000006423545,0.000063037285546,0.999999467232140,0.999962310552358,0.999999994775235,0.100004264890921,3.349902695237462,0.000070030292565,7.670004261249244,138.301430724496726,0.999998563288860,
0.000380000000000,-0.071517933503694,0.100004535461949,0.025024481970266,0.745843158437470,0.749499267481454,0.000002425009007,0.806015787421788,0.000026141583841,0.999999642676263,0.000000006783446,0.000066081554491,0.999999435791006,0.999960093983093,0.999999994632339,0.100004535461949,3.349900029908602,0.000070031798783,7.670004251027989,138.301469342977725,0.999998523952807,
0.000390000000000,-0.071190659154073,0.100004814009249,0.026476148694287,0.745714504715412,0.749484474826387,0.000002512060838,0.802136838185548,0.000027189968703,0.999999623320318,0.000000007159748,0.000069238507686,0.999999402834699,0.999957771028001,0.999999994489454,0.100004814009249,3.349897364622264,0.000070033355988,7.670004237176215,138.301507943222333,0.999998484617850,
0.000400000000000,-0.070863530481777,0.100005100516699,0.027997123142841,0.745585690369117,0.749469685989516,0.000002600601775,0.798304765883812,0.000028262004790,0.999999603257462,0.000000007553234,0.000072512615753,0.999999368290982,0.999955336621905,0.999999994346580,0.100005100516699,3.349894699379433,0.000070034965809,7.670004220363552,138.301546526402518,0.999998445283961,
0.000410000000000,-0.070536530774612,0.100005394968418,0.029589570144129,0.745456665355794,0.749454890551966,0.000002690664531,0.794518511915414,0.000029358187709,0.999999582468742,0.000000007964721,0.000075908506263,0.999999332084174,0.999952785456858,0.999999994203717,0.100005394968418,3.349892034181094,0.000070036629936,7.670004201360345,138.301585093695365,0.999998405951107,
0.000420000000000,-0.070209642302565,0.100005697348788,0.031255650063968,0.745327373102136,0.749440077506128,0.000002782282912,0.790777050591680,0.000030479023113,0.999999560934312,0.000000008395071,0.000079430970226,0.999999294134988,0.999950111970179,0.999999994060864,0.100005697348788,3.349889369028228,0.000070038350117,7.670004181051614,138.301623646281797,0.999998366619260,
0.000430000000000,-0.069882846195603,0.100006007642480,0.032997515967641,0.745197750909375,0.749425235291785,0.000002875491869,0.787079387898437,0.000031625026978,0.999999538633339,0.000000008845189,0.000083084968985,0.999999254360357,0.999947310331873,0.999999993918022,0.100006007642480,3.349886703921815,0.000070040128160,7.670004160452667,138.301662185345322,0.999998327288386,
0.000440000000000,-0.069556122305778,0.100006325834486,0.034817311195235,0.745067730339198,0.749410351821103,0.000002970327557,0.783424560316129,0.000032796725894,0.999999515543907,0.000000009316023,0.000086875641542,0.999999212673248,0.999944374431415,0.999999993775189,0.100006325834486,3.349884038862833,0.000070041965937,7.670004140726500,138.301700712070470,0.999998287958452,
0.000450000000000,-0.069229449052233,0.100006651910146,0.036717167423935,0.744937237579158,0.749395414494058,0.000003066827398,0.779811633695479,0.000033994657387,0.999999491642921,0.000000009808575,0.000090808312361,0.999999168982483,0.999941297863843,0.999999993632367,0.100006651910146,3.349881373852258,0.000070043865383,7.670004123203172,138.301739227641718,0.999998248629425,
0.000460000000000,-0.068902803247615,0.100006985855188,0.038699203289737,0.744806193786174,0.749380410205737,0.000003165030141,0.776239702186291,0.000035219370262,0.999999466905996,0.000000010323895,0.000094888499719,0.999999123192529,0.999938073915155,0.999999993489554,0.100006985855188,3.349878708891065,0.000070045828501,7.670004109401307,138.301777733242147,0.999998209301268,
0.000470000000000,-0.068576159904310,0.100007327655764,0.040765523638938,0.744674515406778,0.749365325346785,0.000003264975942,0.772707887217124,0.000036471424984,0.999999441307353,0.000000010863090,0.000099121924650,0.999999075203298,0.999934695546952,0.999999993346750,0.100007327655764,3.349876043980228,0.000070047857361,7.670004101051918,138.301816230052367,0.999998169973946,
0.000480000000000,-0.068249492018781,0.100007677298498,0.042918219476687,0.744542114472745,0.749350145798111,0.000003366706431,0.769215336523692,0.000037751394085,0.999999414819698,0.000000011427323,0.000103514520574,0.999999024909925,0.999931155380316,0.999999993203955,0.100007677298498,3.349873379120715,0.000070049954104,7.670004100124747,138.301854719249178,0.999998130647420,
0.000490000000000,-0.067922770332167,0.100008034770531,0.045159368675737,0.744408898870779,0.749334856920761,0.000003470264803,0.765761223223998,0.000039059862625,0.999999387414102,0.000000012017820,0.000108072443672,0.999998972202539,0.999927445678870,0.999999993061169,0.100008034770531,3.349870714313498,0.000070052120942,7.670004108857343,138.301893202004607,0.999998091321652,
0.000500000000000,-0.067595963065177,0.100008400059579,0.047491037503622,0.744274772584934,0.749319443541736,0.000003575695902,0.762344744938283,0.000040397428682,0.999999359059865,0.000000012635872,0.000112802084123,0.999998916966021,0.999923558331021,0.999999992918391,0.100008400059579,3.349868049559543,0.000070054360162,7.670004129787089,138.301931679484682,0.999998051996603,
0.000510000000000,-0.067269035625151,0.100008773153989,0.049915283020836,0.744139635910430,0.749303889936339,0.000003683046321,0.758965122952036,0.000041764703907,0.999999329724382,0.000000013282839,0.000117710078288,0.999998859079757,0.999919484831326,0.999999992775621,0.100008773153989,3.349865384859819,0.000070056674128,7.670004165786434,138.301970152848526,0.999998012672229,
0.000520000000000,-0.066941950282960,0.100009154042812,0.052434156396506,0.744003385637548,0.749288179807498,0.000003792364505,0.755621601420377,0.000043162314136,0.999999299372987,0.000000013960157,0.000122803321981,0.999998798417365,0.999915216260991,0.999999992632858,0.100009154042812,3.349862720215290,0.000070059065282,7.670004220101591,138.302008623247332,0.999997973348489,
0.000530000000000,-0.066614665817274,0.100009542715875,0.055049707181675,0.743865915204216,0.749272296262366,0.000003903700867,0.752313446612237,0.000044590900056,0.999999267968798,0.000000014669338,0.000128088984947,0.999998734846424,0.999910743267477,0.999999992490104,0.100009542715875,3.349860055626919,0.000070061536149,7.670004296394993,138.302047091823454,0.999997934025338,
0.000540000000000,-0.066287137123437,0.100009939163860,0.057763988574000,0.743727114815851,0.749256221786352,0.000004017107915,0.749039946192882,0.000046051117967,0.999999235472538,0.000000015411979,0.000133574526715,0.999998668228172,0.999906056043216,0.999999992347356,0.100009939163860,3.349857391095667,0.000070064089336,7.670004398791806,138.302085559709525,0.999997894702731,
0.000550000000000,-0.065959314783971,0.100010343378402,0.060579063701700,0.743586871530947,0.749239938214647,0.000004132640386,0.745800408543375,0.000047543640606,0.999999201842353,0.000000016189769,0.000139267714001,0.999998598417207,0.999901144303445,0.999999992204616,0.100010343378402,3.349854726622498,0.000070066727539,7.670004531930868,138.302124028027691,0.999997855380621,
0.000560000000000,-0.065631144597403,0.100010755352186,0.063497012949215,0.743445069310736,0.749223426701159,0.000004250355400,0.742594162115707,0.000049069158085,0.999999167033602,0.000000017004491,0.000145176639855,0.999998525261151,0.999895997263201,0.999999992061882,0.100010755352186,3.349852062208372,0.000070069453542,7.670004701020403,138.302162497888901,0.999997816058959,
0.000570000000000,-0.065302567061776,0.100011175079058,0.066519942342667,0.743301589031105,0.749206667684691,0.000004370312621,0.739420554822387,0.000050628378925,0.999999130998637,0.000000017858030,0.000151309744787,0.999998448600317,0.999890603613523,0.999999991919153,0.100011175079058,3.349849397854248,0.000070072270221,7.670004911898952,138.302200970392335,0.999997776737695,
0.000580000000000,-0.064973516808790,0.100011602554150,0.069649993010131,0.743156308454716,0.749189640852081,0.000004492574444,0.736278953459373,0.000052222031213,0.999999093686558,0.000000018752386,0.000157675840140,0.999998368267339,0.999884951496959,0.999999991776431,0.100011602554150,3.349846733561085,0.000070075180552,7.670005171101972,138.302239446624753,0.999997737416776,
0.000590000000000,-0.064643921984066,0.100012037774013,0.072889351730226,0.743009102160965,0.749172325097936,0.000004617206190,0.733168743161326,0.000053850863898,0.999999055042942,0.000000019689672,0.000164284133987,0.999998284086794,0.999879028482508,0.999999991633713,0.100012037774013,3.349844069329842,0.000070078187605,7.670005485934634,138.302277927660157,0.999997698096150,
0.000600000000000,-0.064313703568481,0.100012480736768,0.076240262582970,0.742859841431081,0.749154698480490,0.000004744276334,0.730089326888234,0.000055515648233,0.999999015009547,0.000000020672136,0.000171144259908,0.999998195874794,0.999872821540182,0.999999991491000,0.100012480736768,3.349841405161476,0.000070081294556,7.670005864551397,138.302316414559385,0.999997658775761,
0.000610000000000,-0.063982774634906,0.100012931442270,0.079705039719428,0.742708394085212,0.749136738173025,0.000004873856749,0.727040124942548,0.000057217179396,0.999998973523984,0.000000021702158,0.000178266309027,0.999998103438561,0.999866317015439,0.999999991348292,0.100012931442270,3.349838741056946,0.000070084504688,7.670006316043003,138.302354908369892,0.999997619455552,
0.000620000000000,-0.063651039533956,0.100013389892283,0.083286081271722,0.742554624267760,0.749118420410186,0.000005006022978,0.724020574516063,0.000058956278293,0.999998930519347,0.000000022782272,0.000185660865747,0.999998006575967,0.999859500603849,0.999999991205588,0.100013389892283,3.349836077017209,0.000070087821395,7.670006850531649,138.302393410125688,0.999997580135464,
0.000630000000000,-0.063318393001564,0.100013856090684,0.086985884432597,0.742398392176607,0.749099720428429,0.000005140854541,0.721030129265851,0.000060733793587,0.999998885923803,0.000000023915174,0.000193339047697,0.999997905075063,0.999852357326418,0.999999991062887,0.100013856090684,3.349833413043225,0.000070091248185,7.670007479275154,138.302431920847425,0.999997540815435,
0.000640000000000,-0.062984719180211,0.100014330043675,0.090807061744213,0.742239553731022,0.749080612399725,0.000005278435272,0.718068258918666,0.000062550603962,0.999998839660138,0.000000025103736,0.000201312550450,0.999997798713556,0.999844871506198,0.999999990920190,0.100014330043675,3.349830749135951,0.000070094788687,7.670008214781067,138.302470441542368,0.999997501495403,
0.000650000000000,-0.062649890544562,0.100014811760023,0.094752358649182,0.742077960172068,0.749061069357496,0.000005418853703,0.715134448903301,0.000064407620659,0.999998791645234,0.000000026351023,0.000209593697709,0.999997687258274,0.999837026746939,0.999999990777495,0.100014811760023,3.349828085296348,0.000070098446658,7.670009070931798,138.302508973204823,0.999997462175304,
0.000660000000000,-0.062313766721017,0.100015301251320,0.098824672373257,0.741913457588140,0.749041063113649,0.000005562203489,0.712228200010512,0.000066305790320,0.999998741789492,0.000000027660309,0.000218195497695,0.999997570464587,0.999828805914779,0.999999990634802,0.100015301251320,3.349825421525376,0.000070102225982,7.670010063121975,138.302547516816588,0.999997422855069,
0.000670000000000,-0.061976193189206,0.100015798532265,0.103027072228542,0.741745886356821,0.749020564165400,0.000005708583881,0.709349028080189,0.000068246098168,0.999998689996169,0.000000029035103,0.000227131706633,0.999997448075794,0.999820191124274,0.999999990492111,0.100015798532265,3.349822757823999,0.000070106130683,7.670011208409423,138.302586073347527,0.999997383534630,
0.000680000000000,-0.061636999851793,0.100016303620983,0.107362821448577,0.741575080492500,0.748999541590387,0.000005858100274,0.706496463715598,0.000070229571584,0.999998636160630,0.000000030479162,0.000236416900364,0.999997319822472,0.999811163730380,0.999999990349421,0.100016303620983,3.349820094193182,0.000070110164929,7.670012525681343,138.302624643756417,0.999997344213914,
0.000690000000000,-0.061295999457015,0.100016816539363,0.111835400692260,0.741400866887072,0.748977962928375,0.000006010864807,0.703670052024589,0.000072257284101,0.999998580169496,0.000000031996525,0.000246066555248,0.999997185421784,0.999801704328465,0.999999990206732,0.100016816539363,3.349817430633891,0.000070114333036,7.670014035837506,138.302663228991833,0.999997304892847,
0.000700000000000,-0.060952985856139,0.100017337313438,0.116448533382155,0.741223064428468,0.748955794047604,0.000006166997054,0.700869352387823,0.000074330359902,0.999998521899663,0.000000033591541,0.000256097139747,0.999997044576746,0.999791792764971,0.999999990064043,0.100017337313438,3.349814767147097,0.000070118639483,7.670015761992528,138.302701829993339,0.999997265571353,
0.000710000000000,-0.060607732075412,0.100017865973793,0.121206213074304,0.741041482978579,0.748932998993547,0.000006326624805,0.698093938254164,0.000076449978853,0.999998461217183,0.000000035268899,0.000266526218284,0.999996896975449,0.999781408162014,0.999999989921353,0.100017865973793,3.349812103733774,0.000070123088914,7.670017729699598,138.302740447692855,0.999997226249354,
0.000720000000000,-0.060259988179068,0.100018402556021,0.126112733091098,0.740855922188254,0.748909539817503,0.000006489884952,0.695343396963544,0.000078617382169,0.999998397975973,0.000000037033668,0.000277372569253,0.999996742290239,0.999770528960047,0.999999989778661,0.100018402556021,3.349809440394900,0.000070127686149,7.670019967198389,138.302779083016134,0.999997186926766,
0.000730000000000,-0.059909478896450,0.100018947101218,0.131172718686029,0.740666170122223,0.748885376382072,0.000006656924497,0.692617329597725,0.000080833878773,0.999998332016317,0.000000038891345,0.000288656319372,0.999996580176851,0.999759132983719,0.999999989635968,0.100018947101218,3.349806777131457,0.000070132436197,7.670022505690280,138.302817736884606,0.999997147603506,
0.000740000000000,-0.059555900982189,0.100019499656529,0.136391162049080,0.740472001660800,0.748860466140090,0.000006827901714,0.689915350859549,0.000083100852452,0.999998263163131,0.000000040847899,0.000300399096966,0.999996410273504,0.999747197537304,0.999999989493273,0.100019499656529,3.349804113944433,0.000070137344265,7.670025379644510,138.302856410217430,0.999997108279485,
0.000750000000000,-0.059198920273669,0.100020060275748,0.141773460504027,0.740273176637699,0.748834763883069,0.000007002987471,0.687237088981417,0.000085419769911,0.999998191223945,0.000000042909836,0.000312624207229,0.999996232199959,0.999734699537551,0.999999989350574,0.100020060275748,3.349801450834822,0.000070142415772,7.670028627139422,138.302895103933565,0.999997068954615,
0.000760000000000,-0.058838168404376,0.100020629019974,0.147325458293875,0.740069437663822,0.748808221454542,0.000007182366752,0.684582185663916,0.000087792189851,0.999998115986531,0.000000045084263,0.000325356833084,0.999996045556541,0.999721615693554,0.999999989207872,0.100020629019974,3.349798787803627,0.000070147656361,7.670032290243612,138.302933818954358,0.999997029628800,
0.000770000000000,-0.058473239125268,0.100021205958345,0.153053492397751,0.739860507574818,0.748780787422981,0.000007366240422,0.681950296045654,0.000090219773203,0.999998037216123,0.000000047378970,0.000338624265935,0.999995849923145,0.999707922745306,0.999999989065166,0.100021205958345,3.349796124851855,0.000070153071915,7.670036415442578,138.302972556206328,0.999996990301946,
0.000780000000000,-0.058103684178680,0.100021791168828,0.158964442871622,0.739646086424863,0.748752406708063,0.000007554827257,0.679341088705596,0.000092704294693,0.999997954652134,0.000000049802521,0.000352456171448,0.999995644858230,0.999693597774901,0.999999988922454,0.100021791168828,3.349793461980525,0.000070158668578,7.670041054117292,138.303011316624094,0.999996950973950,
0.000790000000000,-0.057729008660314,0.100022384739113,0.165065788255722,0.739425847929179,0.748723020153022,0.000007748366311,0.676754245699310,0.000095247655913,0.999997868004254,0.000000052364366,0.000366884896520,0.999995429897832,0.999678618606941,0.999999988779736,0.100022384739113,3.349790799190665,0.000070164452768,7.670046263082253,138.303050101153786,0.999996911644710,
0.000800000000000,-0.057348665794491,0.100022986767580,0.171365666642919,0.739199435232069,0.748692564034613,0.000007947119673,0.674189462630761,0.000097851900118,0.999997776947813,0.000000055074967,0.000381945824856,0.999995204554606,0.999662964317349,0.999999988637012,0.100022986767580,3.349788136483318,0.000070170431203,7.670052105191697,138.303088910756571,0.999996872314119,
0.000810000000000,-0.056962051035497,0.100023597364383,0.177872943053693,0.738966455843353,0.748660969500752,0.000008151375692,0.671646448761417,0.000100519229016,0.999997681118210,0.000000057945950,0.000397677790128,0.999994968316951,0.999646615872426,0.999999988494280,0.100023597364383,3.349785473859535,0.000070176610924,7.670058650024155,138.303127746412542,0.999996832982065,
0.000820000000000,-0.056568495393589,0.100024216652646,0.184597283813671,0.738726475541332,0.748628161924222,0.000008361452771,0.669124927158605,0.000103252021813,0.999997580104209,0.000000060990290,0.000414123557622,0.999994720648251,0.999629556922036,0.999999988351539,0.100024216652646,3.349782811320384,0.000070182999322,7.670065974657166,138.303166609125043,0.999996793648432,
0.000830000000000,-0.056167257867345,0.100024844769788,0.191549238677381,0.738479010980603,0.748594060158852,0.000008577703843,0.666624634885123,0.000106052856901,0.999997473439819,0.000000064222525,0.000431330387711,0.999994460986285,0.999611774771921,0.999999988208790,0.100024844769788,3.349780148866948,0.000070189604167,7.670074164545958,138.303205499925156,0.999996754313103,
0.000840000000000,-0.055757516844421,0.100025481868995,0.198740331485080,0.738223520662399,0.748558575682242,0.000008800521675,0.664145323232189,0.000108924536541,0.999997360594380,0.000000067659016,0.000449350697520,0.999994188742895,0.999593261559199,0.999999988066030,0.100025481868995,3.349777486500328,0.000070196433644,7.670083314522182,138.303244419876535,0.999996714975951,
0.000850000000000,-0.055338360309789,0.100026128120864,0.206183160176092,0.737959393815163,0.748521611606453,0.000009030345194,0.661686757997739,0.000111870115047,0.999997240960419,0.000000071318262,0.000468242840990,0.999993903303975,0.999574015651038,0.999999987923259,0.100026128120864,3.349774824221647,0.000070203496394,7.670093529931486,138.303283370080720,0.999996675636849,
0.000860000000000,-0.054908774673767,0.100026783715223,0.213891507009820,0.737685936581566,0.748483061534989,0.000009267667061,0.659248719811881,0.000114892930996,0.999997113838625,0.000000075221286,0.000488072032452,0.999993604029894,0.999554043277478,0.999999987780476,0.100026783715223,3.349772162032050,0.000070210801552,7.670104927931842,138.303322351682567,0.999996636295664,
0.000870000000000,-0.054467632001053,0.100027448863172,0.221880459862830,0.737402354696967,0.748442808240940,0.000009513042787,0.656831004510961,0.000117996644114,0.999996978419166,0.000000079392095,0.000508911445034,0.999993290256460,0.999533360393409,0.999999987637679,0.100027448863172,3.349769499932703,0.000070218358805,7.670117638978176,138.303361365876071,0.999996596952255,
0.000880000000000,-0.054013675385993,0.100028123799357,0.230166545477305,0.737107731546156,0.748400722137297,0.000009767101780,0.654433423560982,0.000121185277572,0.999996833758242,0.000000083858260,0.000530843523320,0.999992961296540,0.999511994739422,0.999999987494869,0.100028123799357,3.349766837924803,0.000070226178444,7.670131808523078,138.303400413910538,0.999996557606479,
0.000890000000000,-0.053545502177886,0.100028808784517,0.238767875536980,0.736801000059118,0.748356659506367,0.000010030560808,0.652055804530093,0.000124463266577,0.999996678748437,0.000000088651629,0.000553961560077,0.999992616442454,0.999489988034370,0.999999987352043,0.100028808784517,3.349764176009576,0.000070234271433,7.670147598968228,138.303439497096747,0.999996518258184,
0.000900000000000,-0.053061544712734,0.100029504108335,0.247704306453873,0.736480906288901,0.748310460451031,0.000010304240503,0.649697991608216,0.000127835514248,0.999996512080886,0.000000093809207,0.000578371600547,0.999992254969225,0.999467398182917,0.999999987209201,0.100029504108335,3.349761514188283,0.000070242649487,7.670165191906696,138.303478616813464,0.999996478907215,
0.000910000000000,-0.052560048154042,0.100030210092636,0.256997613790928,0.736145961606732,0.748261946526877,0.000010589085754,0.647359846169554,0.000131307455953,0.999996332196530,0.000000099374283,0.000604194755726,0.999991876138717,0.999444301319830,0.999999987066341,0.100030210092636,3.349758852462223,0.000070251325155,7.670184790702665,138.303517774513921,0.999996439553407,
0.000920000000000,-0.052039044984776,0.100030927094973,0.266671682378231,0.735794379094162,0.748210918011511,0.000010886191074,0.645041247370335,0.000134885133434,0.999996137222676,0.000000105397834,0.000631570029944,0.999991479204576,0.999420793444264,0.999999986923462,0.100030927094973,3.349756190832736,0.000070260311930,7.670206623462161,138.303556971732064,0.999996400196589,
0.000930000000000,-0.051496325625299,0.100031655512657,0.276752713509107,0.735423987656149,0.748157150767124,0.000011196832403,0.642742092769405,0.000138575280228,0.999995924889522,0.000000111940339,0.000660657799967,0.999991063417703,0.999396991332140,0.999999986780564,0.100031655512657,3.349753529301209,0.000070269624364,7.670230946456304,138.303596210088614,0.999996360836582,
0.000940000000000,-0.050929404578129,0.100032395787284,0.287269451315996,0.735032114206756,0.748100392656465,0.000011522507323,0.640462298952736,0.000142385420038,0.999995692419004,0.000000119074110,0.000691644126038,0.999990628031691,0.999373032370168,0.999999986637643,0.100032395787284,3.349750867869081,0.000070279278212,7.670258048067301,138.303635491296291,0.999996321473199,
0.000950000000000,-0.050335481420073,0.100033148409817,0.298253431852424,0.734615419295349,0.748040359484174,0.000011864986329,0.638201802133916,0.000146323979872,0.999995436374904,0.000000126886334,0.000724746134204,0.999990172307182,0.999349072954320,0.999999986494700,0.100033148409817,3.349748206537849,0.000070289290599,7.670288253336784,138.303674817164051,0.999996282106243,
0.000960000000000,-0.049711395876009,0.100033913926294,0.309739261100875,0.734169663559673,0.747976730459985,0.000012226378848,0.635960558690613,0.000150400419773,0.999995152457902,0.000000135483072,0.000760218790586,0.999989695513436,0.999325285163499,0.999999986351731,0.100033913926294,3.349745545309072,0.000070299680221,7.670321929206153,138.303714189599901,0.999996242735508,
0.000970000000000,-0.049053576116092,0.100034692944234,0.321764933000393,0.733689369346958,0.747909143225554,0.000012609219036,0.633738545580782,0.000154625380890,0.999994835221164,0.000000144994603,0.000798363501628,0.999989196924447,0.999301851573864,0.999999986208737,0.100034692944234,3.349742884184383,0.000070310467580,7.670359490549340,138.303753610611267,0.999996203360775,
0.000980000000000,-0.048357979318161,0.100035486139802,0.334372207108636,0.733167320055941,0.747837188564248,0.000013016578504,0.631535760561140,0.000159010853237,0.999994477669197,0.000000155582610,0.000839539134481,0.999988675805633,0.999278958320672,0.999999986065715,0.100035486139802,3.349740223165494,0.000070321675280,7.670401407109782,138.303793082302349,0.999996163981816,
0.000990000000000,-0.047620023425702,0.100036294265822,0.347607079958573,0.732593802512527,0.747760405040373,0.000013452216023,0.629352222102691,0.000163570363646,0.999994070682051,0.000000167450021,0.000884176280493,0.999988131385386,0.999256786813610,0.999999985922664,0.100036294265822,3.349737562254203,0.000070333328374,7.670448211466035,138.303832606867218,0.999996124598387,
0.001000000000000,-0.046834508902760,0.100037118160708,0.361520407923708,0.731955432456863,0.747678274014753,0.000013920778701,0.627187968862682,0.000168319182770,0.999993602172818,0.000000180854638,0.000932795916440,0.999987562803530,0.999235504808363,0.999999985779581,0.100037118160708,3.349734901452408,0.000070345454802,7.670500508164801,138.303872186577649,0.999996085210229,
0.001010000000000,-0.046182510956323,0.100037958758366,0.376168777143337,0.731233285906378,0.747590215788644,0.000014428075648,0.625043058527645,0.000173274547112,0.999993055828849,0.000000196128331,0.000986034105592,0.999986969025798,0.999215257751409,0.999999985636464,0.100037958758366,3.349732240762115,0.000070358085931,7.670558984177244,138.303889968300780,0.999996045817069,
0.001020000000000,-0.045589525964136,0.100038810857195,0.390988527603722,0.730445648811331,0.747497959772251,0.000014963966987,0.622914202956552,0.000178374868304,0.999992449338430,0.000000212805017,0.001042452177102,0.999986358007583,0.999195754366226,0.999999985493312,0.100038810857195,3.349729580185453,0.000070371320624,7.670624600033725,138.303893881178965,0.999996006418613,
0.001030000000000,-0.044973175911363,0.100039673978069,0.405919308398089,0.729582099071801,0.747401542234118,0.000015530037442,0.620800783627950,0.000183617535242,0.999991774970219,0.000000231005118,0.001102150939395,0.999985730521356,0.999176978888224,0.999999985350121,0.100039673978069,3.349726919723423,0.000070385177303,7.670697747823748,138.303892954089463,0.999995967014489,
0.001040000000000,-0.044291717759679,0.100040549979007,0.421142200712592,0.728611534717347,0.747300131431660,0.000016134696156,0.618703449113738,0.000189030022746,0.999991007964729,0.000000251209582,0.001166086530723,0.999985083685197,0.999159047113903,0.999999985206889,0.100040549979007,3.349724259377306,0.000070399661296,7.670778899908190,138.303891494537709,0.999995927604339,
0.001050000000000,-0.043529942259380,0.100041440803799,0.436837481105213,0.727491062716618,0.747192848446939,0.000016787995154,0.616622844371474,0.000194641678488,0.999990115960456,0.000000274013364,0.001235366505474,0.999984414212067,0.999142061044884,0.999999985063614,0.100041440803799,3.349721599148886,0.000070414794690,7.670868782441629,138.303890603573763,0.999995888187817,
0.001060000000000,-0.042681542236180,0.100042348040871,0.453138635968853,0.726162201194083,0.747078938422884,0.000017500995247,0.614559358499673,0.000200478140641,0.999989057995868,0.000000300109461,0.001311142090716,0.999983718889596,0.999126077276411,0.999999984920293,0.100042348040871,3.349718939040204,0.000070430612967,7.670968280743042,138.303890200044037,0.999995848764554,
0.001070000000000,-0.041740500625131,0.100043273181706,0.470162900256643,0.724537001901174,0.746957688389999,0.000018287268194,0.612513253179359,0.000206564658637,0.999987776878920,0.000000330392652,0.001394764154578,0.999982993906612,0.999111119546212,0.999999984776922,0.100043273181706,3.349716279053425,0.000070447158507,7.671078372838174,138.303890033661048,0.999995809334153,
0.001080000000000,-0.040698769904243,0.100044217850761,0.488039540268977,0.722474085978322,0.746828366341499,0.000019164741524,0.610484771179220,0.000212928950861,0.999986187317550,0.000000366100246,0.001487961808327,0.999982234058840,0.999097189442989,0.999999984633499,0.100044217850761,3.349713619190858,0.000070464479846,7.671200136574793,138.303889961505121,0.999995769896192,
0.001090000000000,-0.039546210858497,0.100045183876138,0.506921757189671,0.719854160879061,0.746686206214496,0.000020157628587,0.608474156556882,0.000219601758464,0.999984157634450,0.000000408989394,0.001593003601215,0.999981431963758,0.999084268001954,0.999999984490021,0.100045183876138,3.349710959455015,0.000070482634577,7.671334779606036,138.303889939609576,0.999995730450219,
0.001100000000000,-0.038270575540745,0.100046173283136,0.526990917297711,0.716786929748630,0.746523390720236,0.000021298909806,0.606481631044636,0.000226616008206,0.999981478256110,0.000000461600677,0.001712889324562,0.999980577051357,0.999072313872542,0.999999984346484,0.100046173283136,3.349708299848654,0.000070501693244,7.671483692208528,138.303889967215156,0.999995690995747,
0.001110000000000,-0.036857276233480,0.100047188289177,0.548460015702815,0.713325973754054,0.746332007936346,0.000022634052798,0.604507365984056,0.000234005427390,0.999977803004968,0.000000527696832,0.001851640293071,0.999979654000137,0.999061262286522,0.999999984202883,0.100047188289177,3.349705640374800,0.000070521743513,7.671648575152896,138.303890052763251,0.999995651532245,
0.001120000000000,-0.035289045007961,0.100048231318156,0.571573216513368,0.709436722267502,0.746103381589287,0.000024226700173,0.602551457457844,0.000241802541803,0.999972534667481,0.000000613022679,0.002014756202249,0.999978640207275,0.999051024758196,0.999999984059215,0.100048231318156,3.349702981036768,0.000070542895388,7.671831454189819,138.303890202331104,0.999995612059128,
0.001130000000000,-0.033545636481829,0.100049305026761,0.596589216006012,0.705024408271237,0.745826635403420,0.000026167267053,0.600613899416905,0.000250035502685,0.999964592547286,0.000000726663409,0.002209935797766,0.999977501598922,0.999041487548932,0.999999983915475,0.100049305026761,3.349700321838188,0.000070565288599,7.672034705606423,138.303890418389329,0.999995572575742,
0.001140000000000,-0.031603899540420,0.100050412331587,0.623728157517228,0.699953077220608,0.745487254985208,0.000028585716878,0.598694548212267,0.000258722993369,0.999951921365833,0.000000883565348,0.002448224930062,0.999976185464468,0.999032506139027,0.999999983771656,0.100050412331587,3.349697662783031,0.000070589103470,7.672261070427314,138.303890701041325,0.999995533081343,
0.001150000000000,-0.029438881204820,0.100051556422377,0.653062091999118,0.694047088564541,0.745065575907785,0.000031669944974,0.596793072429610,0.000267866384887,0.999930424995865,0.000001109406683,0.002745862684584,0.999974607779015,0.999023891655969,0.999999983627754,0.100051556422377,3.349695003875646,0.000070614577303,7.672513563454558,138.303891048957553,0.999995493575075,
0.001160000000000,-0.027026908445013,0.100052740735732,0.684358216364095,0.687083382751780,0.744535018329340,0.000035690686219,0.594908882535641,0.000277438566659,0.999891661680584,0.000001450377220,0.003127243864755,0.999972630126002,0.999015382073376,0.999999983483760,0.100052740735732,3.349692345120795,0.000070642029545,7.672795136143320,138.303891459657365,0.999995454055927,
0.001170000000000,-0.024351269860744,0.100053968850442,0.716953305875317,0.678784607383266,0.743860069187168,0.000041032258432,0.593041039510550,0.000287370204510,0.999818221720371,0.000001993461796,0.003629583282464,0.999970016775486,0.999006583476177,0.999999983339666,0.100053968850442,3.349689686523682,0.000070671900706,7.673107965742275,138.303891929441590,0.999995414522682,
0.001180000000000,-0.021409679473137,0.100055244268874,0.749786896958403,0.668824209903392,0.742994275361211,0.000048226884353,0.591188155365723,0.000297537414603,0.999676386556791,0.000002909494798,0.004310044715509,0.999966353347592,0.998996847687594,0.999999983195460,0.100055244268874,3.349687028089957,0.000070704811265,7.673452433147690,138.303892453282742,0.999995374973836,
0.001190000000000,-0.018220766084041,0.100056570089540,0.781639549912440,0.656856176157846,0.741878687384676,0.000057992688256,0.589348318368412,0.000307759242499,0.999410807596809,0.000004545619533,0.005256608696555,0.999960889147002,0.998985001685452,0.999999983051128,0.100056570089540,3.349684369825698,0.000070741646321,7.673826205466990,138.303893024874810,0.999995335407474,
0.001200000000000,-0.014826257401020,0.100057948644084,0.811448769472529,0.642577666158123,0.740441117825335,0.000071283398262,0.587519084748052,0.000317814666423,0.998955299157677,0.000007623509531,0.006606524365607,0.999952225753275,0.998968702664277,0.999999982906653,0.100057948644084,3.349681711737322,0.000070783672832,7.674223992761973,138.303893636922851,0.999995295821092,
0.001210000000000,-0.011287320318376,0.100059381214673,0.838517140443553,0.625815773823338,0.738596306925347,0.000089362085581,0.585697559686795,0.000327482009950,0.998267333292751,0.000013657135927,0.008585252632863,0.999937724077136,0.998942787038188,0.999999982762008,0.100059381214673,3.349679053831474,0.000070832717332,7.674638184652618,138.303894281585826,0.999995256211350,
0.001220000000000,-0.007676340256469,0.100060867921565,0.862542162858935,0.606605720199235,0.736246928766910,0.000113900763998,0.583880552110862,0.000336590291309,0.997358162321680,0.000025802938396,0.011597521018887,0.999912617899466,0.998894816746570,0.999999982617161,0.100060867921565,3.349676396114876,0.000070891511590,7.675060030913829,138.303894950836536,0.999995216573688,
0.001230000000000,-0.004067161182682,0.100062407795155,0.883525617892603,0.585218687698770,0.733285483450592,0.000147089110979,0.582064759575553,0.000345062139170,0.996283369415312,0.000050495204949,0.016413522488821,0.999869849823225,0.998793071523066,0.999999982472064,0.100062407795155,3.349673738594172,0.000070964456604,7.675480850106834,138.303895636466365,0.999995176901705,
0.001240000000000,-0.000526698280808,0.100063998979301,0.901652327279419,0.562119694452060,0.729597289791830,0.000191725567812,0.580246939119085,0.000352929899689,0.995107087127458,0.000100341337460,0.024435289791266,0.999803798963697,0.998559664106356,0.999999982326647,0.100063998979301,3.349671081275813,0.000071059088110,7.675892932876129,138.303896329542823,0.999995137185951,
0.001250000000000,0.002890421606877,0.100065638988421,0.917192721663733,0.537875008599258,0.725064746223718,0.000251267175574,0.578424039384463,0.000360319082339,0.993875095037964,0.000198666327688,0.037809478826255,0.999717256165835,0.998056338250174,0.999999982180800,0.100065638988421,3.349668424165962,0.000071188020379,7.676290046033890,138.303897019256880,0.999995097411645,
0.001260000000000,0.006143902065824,0.100067324954414,0.930442338751667,0.513051659416358,0.719572761051331,0.000329823759503,0.576593290468487,0.000367408374288,0.992608006086861,0.000385451575981,0.058851428324571,0.999621008266273,0.997218724734601,0.999999982034347,0.100067324954414,3.349665767270430,0.000071369718996,7.676667587061739,138.303897691245339,0.999995057555143,
0.001270000000000,0.009207141520118,0.100069053826760,0.941690374099036,0.488144356868916,0.713014974308697,0.000432090684087,0.574752260371868,0.000374384760658,0.991305719142443,0.000722915097571,0.088568338893403,0.999525824057596,0.996194822189442,0.999999981887020,0.100069053826760,3.349663110594645,0.000071625002504,7.677022495791985,138.303898325675675,0.999995017580426,
0.001280000000000,0.012065030553911,0.100070822513145,0.951205548321725,0.463541699933431,0.705300256606851,0.000563220109115,0.572898890204361,0.000381410625353,0.989953622936574,0.001297082168540,0.125488046978878,0.999437513602461,0.995185124698844,0.999999981738455,0.100070822513145,3.349660454143641,0.000071968392720,7.677353035091173,138.303898895671523,0.999994977439180,
0.001290000000000,0.014711321689231,0.100072627965503,0.959230761183341,0.439524238517157,0.696358905810566,0.000728636092541,0.571031517202769,0.000388609361939,0.988527347264503,0.002211277654494,0.166262182579633,0.999357327364841,0.994297900387146,0.999999981588243,0.100072627965503,3.349657797922068,0.000072400439546,7.677658527244273,138.303899366922110,0.999994937077643,
0.001300000000000,0.017146304465653,0.100074467228307,0.965981870430408,0.416280035044785,0.686147864376777,0.000933807818834,0.569148888203651,0.000396065804030,0.986997079870415,0.003570683988412,0.207406163833412,0.999284222198650,0.993550300091702,0.999999981436009,0.100074467228307,3.349655141934216,0.000072908461591,7.677939097821561,138.303899699240901,0.999994896447303,
0.001310000000000,0.019374994907842,0.100076337467901,0.971648412018802,0.393925654299840,0.674654277899614,0.001184004936504,0.567250161343405,0.000403833868068,0.985332977239401,0.005462896292649,0.246534632123943,0.999216593221072,0.992917927065817,0.999999981281463,0.100076337467901,3.349652486184035,0.000073473956216,7.678195450837116,138.303899850140738,0.999994855511703,
0.001320000000000,0.021405750385078,0.100078235993616,0.976395275827878,0.372525748126681,0.661896951802910,0.001484062656828,0.565334893530038,0.000411945337214,0.983511436010396,0.007942725722452,0.282556253798936,0.999153039655440,0.992369988931176,0.999999981124399,0.100078235993616,3.349649830675152,0.000074079569361,7.678428682985602,138.303899779418629,0.999994814246300,
0.001330000000000,0.023249175042584,0.100080160272903,0.980364847256550,0.352108700751756,0.647925639897986,0.001838180121021,0.563403013979124,0.000420416903348,0.981520186621132,0.011026923111817,0.315280149620977,0.999092528137390,0.991882394962168,0.999999980964671,0.100080160272903,3.349647175410881,0.000074712107680,7.678640137023990,138.303899453099604,0.999994772634771,
0.001340000000000,0.024917237649429,0.100082107939960,0.983679331997093,0.332678171525477,0.632818424644146,0.002249767283725,0.561454786666681,0.000429254938594,0.979360117381522,0.014698625130014,0.344955603314767,0.999034329931900,0.991438902448473,0.999999980802167,0.100082107939960,3.349644520394239,0.000075362507383,7.678831290607099,138.303898845460481,0.999994730665710,
0.001350000000000,0.026422572557384,0.100084076798238,0.986443086987482,0.314221273875553,0.616677635342786,0.002721347148175,0.559490765562695,0.000438458498486,0.977043430262898,0.018917201699543,0.371968747179063,0.998977924772080,0.991028782792539,0.999999980636800,0.100084076798238,3.349641865627968,0.000076024747949,7.679003675075392,138.303897938920471,0.999994688330868,
0.001360000000000,0.027777949542626,0.100086064818286,0.988744848636326,0.296714266267734,0.599624813936460,0.003254513349049,0.557511746325002,0.000448021224258,0.974589537376196,0.023628791073296,0.396700501834319,0.998922929860814,0.990644628020231,0.999999980468496,0.100086064818286,3.349639211114551,0.000076694852619,7.679158818194495,138.303896722503822,0.999994645624357,
0.001370000000000,0.028995893930092,0.100088070132527,0.990659796931446,0.280126486388716,0.581795224637003,0.003849938031262,0.555518717486231,0.000457932639907,0.972020669864583,0.028774697331107,0.419480928049337,0.998869056259120,0.990281026868329,0.999999980297199,0.100088070132527,3.349636556856233,0.000077370239074,7.679298205258642,138.303895189845434,0.999994602542123,
0.001380000000000,0.030088431322319,0.100090091028153,0.992251426283624,0.264423066652737,0.563332345976010,0.004507421587335,0.553512813472621,0.000468179130059,0.969358545936728,0.034296882493621,0.440584788661588,0.998816082404418,0.989933874553623,0.999999980122860,0.100090091028153,3.349633902855041,0.000078049322712,7.679423253855554,138.303893337443043,0.999994559081407,
0.001390000000000,0.031066928833993,0.100092125938882,0.993573214624363,0.249566807528258,0.544382699846756,0.005225974005040,0.551495271160287,0.000478744738130,0.966622487461074,0.040140987022644,0.460239174212252,0.998763836750023,0.989600001192532,0.999999979945435,0.100092125938882,3.349631249112798,0.000078731247483,7.679535298582720,138.303891163438777,0.999994515240248,
0.001400000000000,0.031942007115821,0.100094173436062,0.994670094810577,0.235519467853143,0.525091274365811,0.006003917203505,0.549467391099549,0.000489611844418,0.963828730284524,0.046257670829278,0.478632260855386,0.998712185416507,0.989276938451856,0.999999979764886,0.100094173436062,3.349628595631144,0.000079415680792,7.679635582896021,138.303888666908648,0.999994471017076,
0.001410000000000,0.032723502253520,0.100096232219457,0.995579739575560,0.222242650213688,0.505597698182811,0.006838998509779,0.547430504023205,0.000500761747454,0.960990467595658,0.052602970494732,0.495920587321907,0.998661023039347,0.988962751237200,0.999999979581173,0.100096232219457,3.349625942411550,0.000080102652753,7.679725255990068,138.303885847512646,0.999994426410431,
0.001420000000000,0.033420461740092,0.100098301107958,0.996333675059382,0.209698404065004,0.486033234115262,0.007728506945010,0.545385942821220,0.000512175158157,0.958118231674078,0.059138143900785,0.512234836673734,0.998610265930472,0.988655909984043,0.999999979394257,0.100098301107958,3.349623289455333,0.000080792434305,7.679805373159634,138.303882705353374,0.999994381418779,
0.001430000000000,0.034041163069027,0.100100379030441,0.996958239613868,0.197849631384534,0.466518587051532,0.008669385844905,0.543335019831372,0.000523832612445,0.955220367680213,0.065829278189153,0.527684506106663,0.998559846985103,0.988355194040078,0.999999979204094,0.100100379030441,3.349620636763671,0.000081485449017,7.679876898504500,138.303879240934947,0.999994336040401,
0.001440000000000,0.034593146814344,0.100102465016884,0.997475404899449,0.186660353667618,0.447162467993142,0.009658337214107,0.541279009066289,0.000535714807795,0.952303479661453,0.072646808942369,0.542361730170768,0.998509711893752,0.988059619543547,0.999999979010641,0.100102465016884,3.349617984337615,0.000082182211554,7.679940709148054,138.303875455159044,0.999994290273323,
0.001450000000000,0.035083258468819,0.100104558189879,0.997903475778753,0.176095881222387,0.428060822358841,0.010691914905764,0.539219132860304,0.000547802870140,0.949372806389984,0.079565025738309,0.556344410531920,0.998459816313604,0.987768385884820,0.999999978813849,0.100104558189879,3.349615332178101,0.000082883285709,7.679997600369542,138.303871349328034,0.999994244115275,
0.001460000000000,0.035517695025562,0.100106657756586,0.998257684498950,0.166122913436209,0.409296613507016,0.011766605124374,0.537156552355279,0.000560078558359,0.946432522137416,0.086561600697728,0.569698762017915,0.998410123739105,0.987480835786252,0.999999978613669,0.100106657756586,3.349612680285962,0.000083589256089,7.680048291220529,138.303866925142785,0.999994197563672,
0.001470000000000,0.035902053509259,0.100108763001178,0.998550693367372,0.156709590207726,0.390940048171349,0.012878893842456,0.535092361233029,0.000572524414181,0.943485971625790,0.093617156582548,0.582481372782335,0.998360603883166,0.987196425226373,0.999999978410046,0.100108763001178,3.349610028661935,0.000084300709228,7.680093430322523,138.303862184691866,0.999994150615602,
0.001480000000000,0.036241379538528,0.100110873277793,0.998793018716874,0.147825508860331,0.373049135396797,0.014025321513861,0.533027582125893,0.000585123865459,0.940535851616845,0.100714880423825,0.594740868383546,0.998311231434454,0.986914700509709,0.999999978202922,0.100110873277793,3.349607377306675,0.000085018221171,7.680133601636020,138.303857130432874,0.999994103267830,
0.001490000000000,0.036540214630945,0.100112988004007,0.998993387531439,0.139441716752011,0.355670481269025,0.015202525996247,0.530963165182825,0.000597861290509,0.937584350716031,0.107840183028206,0.606519257968310,0.998261985094711,0.986635280590831,0.999999977992237,0.100112988004007,3.349604726220756,0.000085742349589,7.680169330059667,138.303851765167678,0.999994055516805,
0.001500000000000,0.036802641416415,0.100115106654804,0.999159036724968,0.131530686914944,0.338840235535266,0.016407274909819,0.528899988326074,0.000610722050711,0.934633256975692,0.114980401800135,0.617853027112111,0.998212846826670,0.986357843317153,0.999999977777925,0.100115106654804,3.349602075404689,0.000086473629029,7.680201086768250,138.303846092013600,0.999994007358668,
0.001510000000000,0.037032326250760,0.100117228757046,0.999295963776981,0.124066282017928,0.322585121075580,0.017636488807748,0.526838858795814,0.000623692497842,0.931684040872210,0.122124542961493,0.628774028877287,0.998163801261835,0.986082114629826,0.999999977559919,0.100117228757046,3.349599424858916,0.000087212568377,7.680229294234372,138.303840114372377,0.999993958789269,
0.001520000000000,0.037232558954124,0.100119353884410,0.999409136249900,0.117023710489306,0.306923491683630,0.018887256560765,0.524780515642079,0.000636759961830,0.928737919513871,0.129263058788633,0.639310213686426,0.998114835230560,0.985807860019130,0.999999977338146,0.100119353884410,3.349596774583827,0.000087959649838,7.680254330904692,138.303833835898644,0.999993909804182,
0.001530000000000,0.037406289562954,0.100121481652772,0.999502666652658,0.110379477592058,0.291866376866910,0.020156844302775,0.522725632881749,0.000649912723792,0.925795906552954,0.136387655520097,0.649486229891892,0.998065937386427,0.985534877712170,0.999999977112532,0.100121481652772,3.349594124579761,0.000088715328956,7.680276535519925,138.303827260468921,0.999993860398715,
0.001540000000000,0.037556162098067,0.100123611716009,0.999579958175442,0.104111333485850,0.277418483903468,0.021442699176943,0.520674823091279,0.000663139978421,0.922858851194072,0.143491127875265,0.659323920145345,0.998017097903865,0.985262993201765,0.999999976882997,0.100123611716009,3.349591474847008,0.000089480035337,7.680296211080539,138.303820392151835,0.999993810567929,
0.001550000000000,0.037684545428348,0.100125743762192,0.999643825995656,0.098198219759417,0.263579137022276,0.022742448986333,0.518628641252539,0.000676431789091,0.919927468860667,0.150567216522569,0.668842733418904,0.997968308233057,0.984992054821444,0.999999976649461,0.100125743762192,3.349588825385819,0.000090254173810,7.680313628468689,138.303813235180172,0.999993760306650,
0.001560000000000,0.037793561359658,0.100127877510138,0.999696598138125,0.092620215512582,0.250343141336418,0.024053898706794,0.516587588709151,0.000689779038351,0.917002365452661,0.157610485265770,0.678060068443663,0.997919560900002,0.984721930142396,0.999999976411838,0.100127877510138,3.349586176196408,0.000091038125887,7.680329029742484,138.303805793924965,0.999993709609484,
0.001570000000000,0.037885110109157,0.100130012706301,0.999740199253389,0.087358483769339,0.237701565204602,0.025375024674346,0.514552117124514,0.000703173375958,0.914084056655531,0.164616215135322,0.686991561138029,0.997870849342378,0.984452503020857,0.999999976170039,0.100130012706301,3.349583527278954,0.000091832251362,7.680342631122021,138.303798072872041,0.999993658470829,
0.001580000000000,0.037960893341817,0.100132149121957,0.999776220146840,0.082395218782841,0.225642439243318,0.026703967122125,0.512522632360603,0.000716607166099,0.911172983407292,0.171580312958259,0.695651326093131,0.997822167774019,0.984183671163821,0.999999975923973,0.100132149121957,3.349580878633606,0.000092636889998,7.680354625688413,138.303790076600450,0.999993606884886,
0.001590000000000,0.038022434952589,0.100134286550681,0.999805975437990,0.077713594629056,0.214151373498329,0.028039021617466,0.510499498219396,0.000730073435038,0.908269524365153,0.178499232325685,0.704052160210954,0.997773511072371,0.983915344110495,0.999999975673544,0.100134286550681,3.349578230260486,0.000093452363220,7.680365185817672,138.303781809763336,0.999993554845670,
0.001600000000000,0.038071099777407,0.100136424806068,0.999830551343933,0.073297715363426,0.203212096545236,0.029378629839867,0.508483040006992,0.000743565820139,0.905374006015344,0.185369905180106,0.712205715033916,0.997724874684543,0.983647441549381,0.999999975418655,0.100136424806068,3.349575582159690,0.000094278975788,7.680374465371218,138.303773277070690,0.999993502347021,
0.001610000000000,0.038108110411326,0.100138563719694,0.999850845254873,0.069132566923305,0.192806921740268,0.030721370045962,0.506473547894878,0.000757078520877,0.902486710920542,0.192189682507146,0.720122643070635,0.997676254548485,0.983379891907946,0.999999975159203,0.100138563719694,3.349572934331292,0.000095117017414,7.680382601664076,138.303764483274193,0.999993449382613,
0.001620000000000,0.038134562304079,0.100140703139271,0.999867598494387,0.065203970890371,0.182917146672433,0.032065947487638,0.504471280063968,0.000770606252321,0.899607884486843,0.198956282841271,0.727812722440639,0.997627647026533,0.983112631164980,0.999999974895084,0.100140703139271,3.349570286775348,0.000095966764308,7.680389717230917,138.303755433153810,0.999993395945958,
0.001630000000000,0.038151437293503,0.100142842927012,0.999881423425538,0.061498540175958,0.173523392235204,0.033411184982949,0.502476465625576,0.000784144201331,0.896737740546997,0.205667747487051,0.735284963375857,0.997579048849140,0.982845601845908,0.999999974626191,0.100142842927012,3.349567639491891,0.000096828480657,7.680395921408830,138.303746131505903,0.999993342030419,
0.001640000000000,0.038159615726432,0.100144982958148,0.999892825869622,0.058003636653908,0.164605887769311,0.034756013785129,0.500489307319818,0.000797687985627,0.893876465991640,0.212322401520540,0.742547699486526,0.997530457067023,0.982578752169211,0.999999974352412,0.100144982958148,3.349564992480938,0.000097702419999,7.680401311754451,138.303736583132803,0.999993287629214,
0.001650000000000,0.038159887305402,0.100147123119607,0.999902223641548,0.054707330737107,0.156144708530750,0.036099464851160,0.498509983996582,0.000811233615780,0.891024224630568,0.218918819773552,0.749608666190982,0.997481869010310,0.982312035318296,0.999999974073633,0.100147123119607,3.349562345742494,0.000098588826529,7.680405975311750,138.303726792833885,0.999993232735418,
0.001660000000000,0.038152960788240,0.100149263308833,0.999909961869820,0.051598362872868,0.148119971389558,0.037440660576527,0.496538652887479,0.000824777460090,0.888181160427837,0.225455797120598,0.756475068297101,0.997433282253530,0.982045408818040,0.999999973789735,0.100149263308833,3.349559699276546,0.000099487936309,7.680409989745380,138.303716765397581,0.999993177341976,
0.001670000000000,0.038139472656722,0.100151403432724,0.999916325655539,0.048666106917016,0.140511994225518,0.038778807035572,0.494575451679309,0.000838316212270,0.885347400224852,0.231932322487268,0.763153638388287,0.997384694585507,0.981778833999058,0.999999973500599,0.100151403432724,3.349557053083072,0.000100399978397,7.680413424353277,138.303706505594619,0.999993121441698,
0.001680000000000,0.038119994859982,0.100153543406682,0.999921550530248,0.045900535335597,0.133301424001483,0.040113186745910,0.492620500400994,0.000851846861836,0.882523056042635,0.238347556082647,0.769650687393314,0.997336103983387,0.981512275535843,0.999999973206099,0.100153543406682,3.349554407162035,0.000101325175889,7.680416340970898,138.303696018171905,0.999993065027270,
0.001690000000000,0.038095041728557,0.100155683153768,0.999925831093682,0.043292186175505,0.126469337995156,0.041443151959527,0.490673903136555,0.000865366667041,0.879708227036445,0.244700809429390,0.775972148494868,0.997287508590163,0.981245701047356,0.999999972906109,0.100155683153768,3.349551761513389,0.000102263746897,7.680418794778371,138.303685307847644,0.999993008091253,
0.001700000000000,0.038065076145741,0.100157822603945,0.999929328147050,0.040832131740230,0.119997322178363,0.042768118471595,0.488735749577021,0.000878873130217,0.876903001161792,0.250991527825283,0.782123615346852,0.997238906695175,0.980979080750646,0.999999972600496,0.100157822603945,3.349549116137078,0.000103215905441,7.680420835020723,138.303674379306671,0.999992950626088,
0.001710000000000,0.038030515054446,0.100159961693393,0.999932174583107,0.038511948903835,0.113867530263456,0.044087559929627,0.486806116423976,0.000892363975344,0.874107456599752,0.257219274921314,0.788110375417683,0.997190296717133,0.980712387159641,0.999999972289126,0.100159961693393,3.349546471033036,0.000104181862282,7.680422505650356,138.303663237196901,0.999992892624094,
0.001720000000000,0.037991734369968,0.100162100363908,0.999934480249179,0.036323690994614,0.108062726498731,0.045401002619973,0.484885068657125,0.000905837127705,0.871321662980572,0.263383719144792,0.793937439150067,0.997141677189327,0.980445594822591,0.999999971971861,0.100162100363908,3.349543826201191,0.000105161825683,7.680423845900044,138.303651886126005,0.999992834077477,
0.001730000000000,0.037949073361936,0.100164238562358,0.999936335961906,0.034259861179387,0.102566314893394,0.046708020704923,0.482972660677710,0.000919290695434,0.868545682437565,0.269484621733150,0.799609565522171,0.997093046746679,0.980178680092663,0.999999971648559,0.100164238562358,3.349541181641462,0.000106156002124,7.680424890793842,138.303640330658624,0.999992774978322,
0.001740000000000,0.037902838562198,0.100166376240195,0.999937816821488,0.032313387279750,0.097362357189710,0.048008231881647,0.481068937338952,0.000932722952835,0.865779570517559,0.275521826175776,0.805131284506975,0.997044404114417,0.979911620927084,0.999999971319073,0.100166376240195,3.349538537353761,0.000107164596948,7.680425671602600,138.303628575313979,0.999992715318602,
0.001750000000000,0.037853307249566,0.100168513353028,0.999938984947562,0.030477597952577,0.092435581575376,0.049301293433268,0.479173934874013,0.000946132325290,0.863023376969641,0.281495248888287,0.810506916852671,0.996995748098129,0.979644396710941,0.999999970983255,0.100168513353028,3.349535893337994,0.000108187814969,7.680426216250002,138.303616624564000,0.999992655090173,
0.001760000000000,0.037800730556972,0.100170649860229,0.999939891737618,0.028746200168575,0.087771383841589,0.050586898642382,0.477287681731176,0.000959517375633,0.860277146430243,0.287404870966929,0.815740591544928,0.996947077575012,0.979376988102314,0.999999970640952,0.100170649860229,3.349533249594062,0.000109225861026,7.680426549674500,138.303604482831560,0.999992594284778,
0.001770000000000,0.037745336241808,0.100172785724587,0.999940579731301,0.027113257924478,0.083355822439298,0.051864773537935,0.475410199325265,0.000972876791853,0.857540919019606,0.293250730890712,0.820836261259489,0.996898391486175,0.979109376895952,0.999999970292005,0.100172785724587,3.349530606121857,0.000110278940500,7.680426694151916,138.303592154489252,0.999992532894043,
0.001780000000000,0.037687331155911,0.100174920912000,0.999941084149402,0.025573172126562,0.079175608665187,0.053134673947479,0.473541502713527,0.000986209375998,0.854814730862207,0.299032918056090,0.825797716069370,0.996849688829842,0.978841545903071,0.999999969936254,0.100174920912000,3.349527962921268,0.000111347259793,7.680426669582954,138.303579643858114,0.999992470909479,
0.001790000000000,0.037626903447727,0.100177055391196,0.999941434164384,0.024120661585363,0.075218093016919,0.054396382828184,0.471681601203530,0.000999514034167,0.852098614541743,0.304751567043760,0.830628595633465,0.996800968655357,0.978573478845231,0.999999969573533,0.100177055391196,3.349525319992179,0.000112431026765,7.680426493749461,138.303566955206719,0.999992408322481,
0.001800000000000,0.037564224525759,0.100179189133485,0.999941653949331,0.022750745063834,0.071471248591239,0.055649707851585,0.469830498899946,0.001012789767493,0.849392599499591,0.310406852529985,0.835332400061567,0.996752230057876,0.978305160260512,0.999999969203673,0.100179189133485,3.349522677334470,0.000113530451151,7.680426182542819,138.303554092750403,0.999992345124329,
0.001810000000000,0.037499450809225,0.100181322112535,0.999941763544049,0.021458724323546,0.067923652255686,0.056894479218667,0.467988195196451,0.001026035664003,0.846696712384313,0.315998984765841,0.839912499623768,0.996703472173666,0.978036575420474,0.999999968826499,0.100181322112535,3.349520034948017,0.000114645744941,7.680425750167526,138.303541060650787,0.999992281306181,
0.001820000000000,0.037432725289085,0.100183454304174,0.999941779570258,0.020240168115956,0.064564464202219,0.058130547683654,0.466154685218388,0.001039250891285,0.844010977358618,0.321528205557441,0.844372143449115,0.996654694175947,0.977767710256581,0.999999968441832,0.100183454304174,3.349517392832690,0.000115777122735,7.680425209322633,138.303527863015148,0.999992216859079,
0.001830000000000,0.037364178920084,0.100185585686209,0.999941715822249,0.019090897068150,0.061383406386485,0.059357782766525,0.464329960221290,0.001052434689874,0.841335416369278,0.326994784688437,0.848714467338692,0.996605895271193,0.977498551294944,0.999999968049490,0.100185585686209,3.349514750988357,0.000116924802082,7.680424571363496,138.303514503896224,0.999992151773941,
0.001840000000000,0.037293931862210,0.100187716238272,0.999941583754766,0.018006969414833,0.058370740267427,0.060576071135947,0.462514007949854,0.001065586367282,0.838670049384666,0.332399016733385,0.852942500801459,0.996557074695858,0.977229085598398,0.999999967649285,0.100187716238272,3.349512109414883,0.000118089003788,7.680423846445962,138.303500987291926,0.999992086041563,
0.001850000000000,0.037222094587989,0.100189845941668,0.999941392886055,0.016984667530653,0.055517244186399,0.061785315145895,0.460706812961500,0.001078705292608,0.836014894603952,0.337741218216808,0.857059173406678,0.996508231713459,0.976959300715043,0.999999967241023,0.100189845941668,3.349509468112128,0.000119269952218,7.680423043654917,138.303487317145198,0.999992019652618,
0.001860000000000,0.037148768870225,0.100191974779253,0.999941151130901,0.016020485219203,0.052814190661081,0.062985431510727,0.458908356918226,0.001091790891672,0.833369968641408,0.343021725078284,0.861067320534376,0.996459365611986,0.976689184632512,0.999999966824507,0.100191974779253,3.349506827079948,0.000120467875567,7.680422171118901,138.303473497344015,0.999991952597651,
0.001870000000000,0.037074048663224,0.100194102735315,0.999940865075871,0.015111115717215,0.050253323815581,0.064176350104883,0.457118618850079,0.001104842642618,0.830735286688819,0.348240890408706,0.864969688594606,0.996410475701599,0.976418725737285,0.999999966399534,0.100194102735315,3.349504186318200,0.000121683006134,7.680421236112317,138.303459531721273,0.999991884867075,
0.001880000000000,0.036998020889108,0.100196229795471,0.999940540206842,0.014253440374588,0.047826837122880,0.065358012874707,0.455337575393239,0.001117860071932,0.828110862658581,0.353399082426970,0.868768939777080,0.996361561312575,0.976147912778492,0.999999965965896,0.100196229795471,3.349501545826734,0.000122915580566,7.680420245146577,138.303445424054985,0.999991816451176,
0.001890000000000,0.036920766139557,0.100198355946573,0.999940181097145,0.013444517972898,0.045527351597800,0.066530372851057,0.453565201005369,0.001130842750841,0.825496709309722,0.358496682670088,0.872467656384812,0.996312621793484,0.975876734835690,0.999999965523379,0.100198355946573,3.349498905605399,0.000124165840108,7.680419204051391,138.303431178068337,0.999991747340105,
0.001900000000000,0.036842359302200,0.100200481176627,0.999939791563172,0.012681574647010,0.043347894547016,0.067693393252521,0.451801468160626,0.001143790292045,0.822892838358821,0.363534084372839,0.876068344798576,0.996263656509562,0.975605181290176,0.999999965071764,0.100200481176627,3.349496265654042,0.000125434030831,7.680418118047307,138.303416797429861,0.999991677523874,
0.001910000000000,0.036762870119848,0.100202605474711,0.999939374793130,0.011961994376256,0.041281878956289,0.068847046670063,0.450046347526465,0.001156702346752,0.820299260577499,0.368511691015964,0.879573439113074,0.996214664841266,0.975333241799437,0.999999964610826,0.100202605474711,3.349493625972506,0.000126720403856,7.680416991810397,138.303402285753606,0.999991606992357,
0.001920000000000,0.036682363689887,0.100204728830914,0.999938933453599,0.011283310013439,0.039323083573242,0.069991314324826,0.448299808124127,0.001169578601987,0.817715985877992,0.373429915024286,0.882985304480553,0.996165646182982,0.975060906274404,0.999999964140335,0.100204728830914,3.349490986560632,0.000128025215577,7.680415829530000,138.303387646599475,0.999991535735287,
0.001930000000000,0.036600900910332,0.100206851236269,0.999938469777764,0.010643194821621,0.037465633726023,0.071126185391703,0.446561817474535,0.001182418778139,0.815143023388099,0.378289176598371,0.886306240193240,0.996116599941878,0.974788164859186,0.999999963660052,0.100206851236269,3.349488347418260,0.000129348727871,7.680414634960245,138.303372883473401,0.999991463742249,
0.001940000000000,0.036518538878350,0.100208972682702,0.999937985638500,0.010039454490259,0.035703982903408,0.072251656382016,0.444832341731087,0.001195222626732,0.812580381516648,0.383089902665204,0.889538482532033,0.996067525536883,0.974515007913043,0.999999963169736,0.100208972682702,3.349485708545226,0.000130691208309,7.680413411466041,138.303357999827796,0.999991391002683,
0.001950000000000,0.036435331246404,0.100211093162979,0.999937482608930,0.009470019603836,0.034032895109843,0.073367730579361,0.443111345800715,0.001207989928379,0.810028068010501,0.387832525935027,0.892684207405634,0.996018422397776,0.974241425994334,0.999999962669136,0.100211093162979,3.349483069941364,0.000132052930359,7.680412162064129,138.303342999061726,0.999991317505874,
0.001960000000000,0.036351328540623,0.100213212670660,0.999936962012645,0.008932938537538,0.032447427999186,0.074474417523266,0.441398793454410,0.001220720490925,0.807486090003962,0.392517484052983,0.895745532801315,0.995969289964378,0.973967409846244,0.999999962157996,0.100213212670660,3.349480431606507,0.000133434173595,7.680410889459753,138.303327884521252,0.999991243240953,
0.001970000000000,0.036266578445500,0.100215331200062,0.999936424965352,0.008426370755986,0.030942916783057,0.075571732535908,0.439694647428286,0.001233414147739,0.804954454061397,0.397145218835473,0.898724521066068,0.995920127685837,0.973692950384098,0.999999961636053,0.100215331200062,3.349477793540485,0.000134835223895,7.680409596079394,138.303312659499937,0.999991168196895,
0.001980000000000,0.036181126058551,0.100217448746217,0.999935872409457,0.007948580492308,0.029514958903478,0.076659696287617,0.437998869516142,0.001246070756148,0.802433166213744,0.401716175582295,0.901623181034623,0.995870935019985,0.973418038684096,0.999999961103036,0.100217448746217,3.349475155743127,0.000136256373647,7.680408284100012,138.303297327239108,0.999991092362508,
0.001990000000000,0.036095014118206,0.100219565304842,0.999935305142772,0.007497930786109,0.028159399454622,0.077738334397339,0.436311420654373,0.001258690195995,0.799922231989542,0.406230802456629,0.904443470018921,0.995821711432777,0.973142665973320,0.999999960558669,0.100219565304842,3.349472518214258,0.000137697921950,7.680406955475171,138.303281890928361,0.999991015726439,
0.002000000000000,0.036008283207810,0.100221680872306,0.999934723842391,0.007072877860081,0.026872317334712,0.078807677064661,0.434632261000001,0.001271272368319,0.797421656441012,0.410689549925840,0.907187295671979,0.995772456397785,0.972866823620889,0.999999960002665,0.100221680872306,3.349469880953702,0.000139160174819,7.680405611958389,138.303266353705823,0.999990938277161,
0.002010000000000,0.035920971938329,0.100223795445605,0.999934129084535,0.006671965816127,0.025650012106284,0.079867758730336,0.432961350002486,0.001283817194128,0.794931444165692,0.415092870256828,0.909856517737573,0.995723169395765,0.972590503130129,0.999999959434733,0.100223795445605,3.349467243961285,0.000140643445391,7.680404255123995,138.303250718658745,0.999990860002977,
0.002020000000000,0.035833117112047,0.100225909022332,0.999933521361079,0.006293821632916,0.024488991540956,0.080918617762594,0.431298646469941,0.001296324613268,0.792451599324055,0.419441217060363,0.912452949695924,0.995673849914257,0.972313696131673,0.999999958854572,0.100225909022332,3.349464607236824,0.000142148054134,7.680402886385783,138.303234988823760,0.999990780892010,
0.002030000000000,0.035744753869310,0.100228021600658,0.999932901093320,0.005937150447840,0.023385959823433,0.081960296166800,0.429644108630268,0.001308794583375,0.789982125653504,0.423735044879464,0.914978360314431,0.995624497447248,0.972036394377386,0.999999958261872,0.100228021600658,3.349461970780139,0.000143674329060,7.680401507013689,138.303219167187564,0.999990700932202,
0.002040000000000,0.035655915820143,0.100230133179309,0.999932268643456,0.005600731107238,0.022337806388540,0.082992839316280,0.427997694187726,0.001321227078905,0.787523026479091,0.427974808817400,0.917434475111517,0.995575111494870,0.971758589735025,0.999999957656316,0.100230133179309,3.349459334591048,0.000145222605937,7.680400118148698,138.303203256687141,0.999990620111308,
0.002050000000000,0.035566635162364,0.100232243757549,0.999931624324171,0.005283411969712,0.021341595364593,0.084016295702368,0.426359360375324,0.001333622090221,0.785074304721275,0.432160964201397,0.919822977740798,0.995525691563137,0.971480274183580,0.999999957037577,0.100232243757549,3.349456698669363,0.000146793228515,7.680398720816188,138.303187260210279,0.999990538416895,
0.002060000000000,0.035476942787639,0.100234353335159,0.999930968406648,0.004984106948167,0.020394555596287,0.085030716701948,0.424729064003454,0.001345979622756,0.782635962901004,0.436293966278533,0.922145511302017,0.995476237163718,0.971201439809212,0.999999956405321,0.100234353335159,3.349454063014900,0.000148386548746,7.680397315937857,138.303171180596109,0.999990455836332,
0.002070000000000,0.035386868376795,0.100236461912421,0.999930301127262,0.004701791777056,0.019494071220364,0.086036156360916,0.423106761505088,0.001358299696220,0.780208003142381,0.440374269940701,0.924403679584523,0.995426747813738,0.970922078801730,0.999999955759204,0.100236461912421,3.349451427627470,0.000150002927019,7.680395904342409,138.303155020635501,0.999990372356789,
0.002080000000000,0.035296440485506,0.100238569490107,0.999929622693200,0.004435500492028,0.018637672767722,0.087032671192176,0.421492408977847,0.001370582343861,0.777790427173137,0.444402329475848,0.926599048248494,0.995377223035609,0.970642183451562,0.999999955098870,0.100238569490107,3.349448792506883,0.000151642732393,7.680394486775104,138.303138783071603,0.999990287965233,
0.002090000000000,0.035205686621416,0.100240676069463,0.999928933287170,0.004184322109935,0.017823028766083,0.088020319986936,0.419885962223220,0.001382827611772,0.775383236323134,0.448378598342981,0.928733145948579,0.995327662356888,0.970361746147166,0.999999954423955,0.100240676069463,3.349446157652947,0.000153306342846,7.680393063906319,138.303122470600272,0.999990202648418,
0.002100000000000,0.035114633313591,0.100242781652193,0.999928233071351,0.003947397497820,0.017047937818044,0.088999163638160,0.418287376783177,0.001395035558240,0.772986431521078,0.452303528968707,0.930807465404167,0.995278065310149,0.970080759372835,0.999999953734086,0.100242781652193,3.349443523065469,0.000154994145520,7.680391636339211,138.303106085870610,0.999990116392887,
0.002110000000000,0.035023306175131,0.100244886240454,0.999927522190731,0.003723916420143,0.016310321130026,0.089969264975197,0.416696607974389,0.001407206253131,0.770600013289632,0.456177572563311,0.932823464420116,0.995228431432890,0.969799215706865,0.999999953028876,0.100244886240454,3.349440888744252,0.000156706536981,7.680390204616576,138.303089631485420,0.999990029184961,
0.002120000000000,0.034931729959663,0.100246989836842,0.999926800775902,0.003513114754116,0.015608215468502,0.090930688608669,0.415113610920262,0.001419339777311,0.768223981739075,0.460001178954563,0.934782566861388,0.995178760267442,0.969517107820040,0.999999952307931,0.100246989836842,3.349438254689100,0.000158443923489,7.680388769226997,138.303073110001634,0.999989941010737,
0.002130000000000,0.034839928612371,0.100249092444381,0.999926068945433,0.003314271863602,0.014939766520731,0.091883500784830,0.413538340580947,0.001431436222098,0.765858336559669,0.463774796437646,0.936686163584725,0.995129051360910,0.969234428474414,0.999999951570843,0.100249092444381,3.349435620899813,0.000160206721269,7.680387330610356,138.303056523930934,0.999989851856081,
0.002140000000000,0.034747925316139,0.100251194066517,0.999925326807873,0.003126708122551,0.014303222638128,0.092827769248641,0.411970751781503,0.001443495688743,0.763503077012861,0.467498871639754,0.938535613330234,0.995079304265115,0.968951170522353,0.999999950817193,0.100251194066517,3.349432987376190,0.000161995356796,7.680385889162767,138.303039875740183,0.999989761706622,
0.002150000000000,0.034655742533326,0.100253294707105,0.999924574463448,0.002949782579469,0.013696928941332,0.093763563114930,0.410410799238332,0.001455518287938,0.761158201921453,0.471173849398060,0.940332243575482,0.995029518536563,0.968667326905816,0.999999950046550,0.100253294707105,3.349430354118029,0.000163810267093,7.680384445241002,138.303023167851904,0.999989670547747,
0.002160000000000,0.034563402043641,0.100255394370407,0.999923812005498,0.002782890754903,0.013119321766963,0.094690952747034,0.408858437584042,0.001467504139352,0.758823709658856,0.474800172649867,0.942077351354476,0.994979693736411,0.968382890655848,0.999999949258470,0.100255394370407,3.349427721125124,0.000165651900028,7.680382999166468,138.303006402644797,0.999989578364595,
0.002170000000000,0.034470924978516,0.100257493061083,0.999923039521706,0.002625462564379,0.012568923436960,0.095610009642391,0.407313621390824,0.001479453371178,0.756499598137531,0.478378282333891,0.943772204043728,0.994929829430464,0.968097854892269,0.999999948452498,0.100257493061083,3.349425088397270,0.000167520714636,7.680381551228757,138.302989582454302,0.999989485142051,
0.002180000000000,0.034378331852367,0.100259590784180,0.999922257095144,0.002476960359632,0.012044337332335,0.096520806324596,0.405776305192475,0.001491366119720,0.754185864796731,0.481908617301719,0.945418040117387,0.994879925189158,0.967812212823527,0.999999947628163,0.100259590784180,3.349422455934257,0.000169417181442,7.680380101688844,138.302972709572941,0.999989390864738,
0.002190000000000,0.034285642591044,0.100261687545132,0.999921464805165,0.002336877081428,0.011544243254054,0.097423416241495,0.404246443505139,0.001503242528979,0.751882506589629,0.485391614238562,0.947016069873294,0.994829980587574,0.967525957746724,0.999999946784983,0.100261687545132,3.349419823735874,0.000171341782801,7.680378650781948,138.302955786251005,0.999989295517013,
0.002200000000000,0.034192876557791,0.100263783349753,0.999920662728166,0.002204734517590,0.011067393054629,0.098317913668903,0.402723990846867,0.001515082750272,0.749589519969935,0.488827707592543,0.948567476131662,0.994779995205446,0.967239083047765,0.999999945922460,0.100263783349753,3.349417191801909,0.000173295013246,7.680377198720113,138.302938814697001,0.999989199082957,
0.002210000000000,0.034100052576962,0.100265878204227,0.999919850938249,0.002080081660275,0.010612606524855,0.099204373619600,0.401208901756065,0.001526886941865,0.747306900878064,0.492217329511773,0.950073414907938,0.994729968627181,0.966951582201641,0.999999945040081,0.100265878204227,3.349414560132149,0.000175277379855,7.680375745694512,138.302921797078056,0.999989101546374,
0.002220000000000,0.034007188955727,0.100267972115112,0.999919029507784,0.001962493156818,0.010178767520960,0.100082871757262,0.399701130808906,0.001538655268614,0.745034644726964,0.495560909788606,0.951535016061304,0.994679900441886,0.966663448772828,0.999999944137319,0.100267972115112,3.349411928726375,0.000177289402626,7.680374291877518,138.302904735520514,0.999989002890775,
0.002230000000000,0.033914303503983,0.100270065089326,0.999918198507893,0.001851567848840,0.009764820318195,0.100953484315043,0.398200632635764,0.001550387901630,0.742772746387659,0.498858875810458,0.952953383920175,0.994629790243398,0.966374676415779,0.999999943213631,0.100270065089326,3.349409297584369,0.000179331614870,7.680372837424573,138.302887632110412,0.999988903099378,
0.002240000000000,0.033821413552660,0.100272157134151,0.999917358008877,0.001746927394577,0.009369766177669,0.101816288018518,0.396707361936737,0.001562085017954,0.740521200174583,0.502111652516655,0.954329597885925,0.994579637630325,0.966085258875510,0.999999942268457,0.100272157134151,3.349406666705909,0.000181404563618,7.680371382475857,138.302870488894030,0.999988802155098,
0.002250000000000,0.033728535970575,0.100274248257226,0.999916508080579,0.001648214969700,0.008992660113969,0.102671360012740,0.395221273496307,0.001573746800246,0.738279999830784,0.505319662360838,0.955664713016019,0.994529442206083,0.965795189988267,0.999999941301221,0.100274248257226,3.349404036090773,0.000183508810042,7.680369927157794,138.302853307878308,0.999988700040539,
0.002260000000000,0.033635687179994,0.100276338466541,0.999915648792696,0.001555094042153,0.008632607851773,0.103518777793183,0.393742322197182,0.001585373436483,0.736049138513046,0.508483325278460,0.956959760587634,0.994479203578946,0.965504463682259,0.999999940311329,0.100276338466541,3.349401405738734,0.000185644929898,7.680368471584402,138.302836091031395,0.999988596737984,
0.002270000000000,0.033542883171039,0.100278427770439,0.999914780215063,0.001467247216783,0.008288762960342,0.104358619140357,0.392270463033378,0.001596965119677,0.733828608777009,0.511603058658963,0.958215748642770,0.994428921362091,0.965213073978459,0.999999939298170,0.100278427770439,3.349398775649564,0.000187813513974,7.680367015858515,138.302818840283152,0.999988492229392,
0.002280000000000,0.033450139515046,0.100280516177613,0.999913902417883,0.001384375145808,0.007960324155413,0.105190962057890,0.390805651122574,0.001608522047593,0.731618402562326,0.514679277322275,0.959433662515815,0.994378595173655,0.964921014991455,0.999999938261111,0.100280516177613,3.349396145823031,0.000190015168574,7.680365560072865,138.302801557525584,0.999988386496384,
0.002290000000000,0.033357471376987,0.100282603697099,0.999913015471945,0.001306195501342,0.007646532758603,0.106015884713904,0.389347841717775,0.001620044422487,0.729418511177942,0.517712393499262,0.960614465344433,0.994328224636786,0.964628280930350,0.999999937199504,0.100282603697099,3.349393516258904,0.000192250516003,7.680364104311075,138.302784244613463,0.999988279520235,
0.002300000000000,0.033264893527057,0.100284690338278,0.999912119448801,0.001232442006474,0.007346670305004,0.106833465385513,0.387896990218327,0.001631532450849,0.727228925287514,0.520702816815829,0.961759098564618,0.994277809379704,0.964334866099702,0.999999936112679,0.100284690338278,3.349390886956947,0.000194520195082,7.680362648648543,138.302766903364699,0.999988171281870,
0.002310000000000,0.033172420351506,0.100286776110873,0.999911214420926,0.001162863521536,0.007060056290198,0.107643782406287,0.386453052180313,0.001642986343157,0.725049634895053,0.523650954280363,0.962868482390680,0.994227349035758,0.964040764900499,0.999999934999944,0.100286776110873,3.349388257916919,0.000196824861683,7.680361193153233,138.302749535560878,0.999988061761847,
0.002320000000000,0.033080065862781,0.100288861024948,0.999910300461864,0.001097223182437,0.006786046048423,0.108446914116526,0.385015983326359,0.001654406313637,0.722880629330827,0.526557210274262,0.963943516280908,0.994176843243489,0.963745971831166,0.999999933860587,0.100288861024948,3.349385629138578,0.000199165189280,7.680359737886404,138.302732142947804,0.999987950940354,
0.002330000000000,0.032987843709071,0.100290945090907,0.999909377646340,0.001035297588078,0.006524028754114,0.109242938816227,0.383585739554885,0.001665792580042,0.720721897237562,0.529421986545284,0.964985079389583,0.994126291646692,0.963450481488587,0.999999932693875,0.100290945090907,3.349383000621682,0.000201541869527,7.680358282903236,138.302714727235923,0.999987838797192,
0.002340000000000,0.032895767183293,0.100293028319490,0.999908446050374,0.000976876034068,0.006273425539483,0.110031934720594,0.382162276948814,0.001677145363424,0.718573426557005,0.532245682203487,0.965994031006003,0.994075693894479,0.963154288569157,0.999999931499048,0.100293028319490,3.349380372365980,0.000203955612862,7.680356828253436,138.302697290100753,0.999987725311773,
0.002350000000000,0.032803849231584,0.100295110721780,0.999907505751372,0.000921759790092,0.006033687721267,0.110813979917987,0.380745551783783,0.001688464887924,0.716435204516881,0.535028693719550,0.966971210981121,0.994025049641348,0.962857387869842,0.999999930275325,0.100295110721780,3.349377744371223,0.000206407149124,7.680355373981745,138.302679833183504,0.999987610463101,
0.002360000000000,0.032712102461343,0.100297192309191,0.999906556828209,0.000869761418442,0.005804295130137,0.111589152330191,0.379335520535862,0.001699751380572,0.714307217618280,0.537771414925262,0.967917440142362,0.993974358547241,0.962559774289249,0.999999929021900,0.100297192309191,3.349375116637155,0.000208897228214,7.680353920128417,138.302662358091482,0.999987494229768,
0.002370000000000,0.032620539148879,0.100299273093480,0.999905599361293,0.000820704131377,0.005584754536693,0.112357529674891,0.377932139888812,0.001711005071084,0.712189451623523,0.540474237015995,0.968833520697186,0.993923620277617,0.962261442828704,0.999999927737939,0.100299273093480,3.349372489163518,0.000211426620765,7.680352466729644,138.302644866398595,0.999987376589936,
0.002380000000000,0.032529171246678,0.100301353086738,0.999904633432635,0.000774421185081,0.005374598168292,0.113119189430274,0.376535366740904,0.001722226191677,0.710081891544544,0.543137548554996,0.969720236625876,0.993872834503512,0.961962388593337,0.999999926422585,0.100301353086738,3.349369861950051,0.000213996118853,7.680351013817942,138.302627359645754,0.999987257521332,
0.002390000000000,0.032438010390356,0.100303432301397,0.999903659125891,0.000730755308156,0.005173382311328,0.113874208801639,0.375145158211310,0.001733414976882,0.707984521631808,0.545761735479319,0.970578354064063,0.993822000901611,0.961662606793157,0.999999925074948,0.100303432301397,3.349367234996488,0.000216606536729,7.680349561422497,138.302609839341500,0.999987137001229,
0.002400000000000,0.032347067905301,0.100305510750224,0.999902676526416,0.000689558162656,0.004980685993890,0.114622664689940,0.373761471646096,0.001744571663370,0.705897325363818,0.548347181107255,0.971408621675418,0.993771119154308,0.961362092744132,0.999999923694114,0.100305510750224,3.349364608302560,0.000219258711592,7.680348109569476,138.302592306962339,0.999987015006438,
0.002410000000000,0.032256354813051,0.100307588446329,0.999901685721295,0.000650689835832,0.004796109744032,0.115364633662169,0.372384264623820,0.001755696489783,0.703820285437225,0.550894266147111,0.972211771014967,0.993720188949775,0.961060841869258,0.999999922279137,0.100307588446329,3.349361981867994,0.000221953504382,7.680346658282308,138.302574763953231,0.999986891513293,
0.002420000000000,0.032165881837423,0.100309665403163,0.999900686799377,0.000614018360818,0.004619274419173,0.116100191923509,0.371013494960768,0.001766789696565,0.701753383757579,0.553403368707210,0.972988516883406,0.993669209982027,0.960758849699618,0.999999920829040,0.100309665403163,3.349359355692511,0.000224691800620,7.680345207581946,138.302557211728100,0.999986766497639,
0.002430000000000,0.032075659410418,0.100311741634516,0.999899679851300,0.000579419264621,0.004449820102425,0.116829415291165,0.369649120715830,0.001777851525812,0.699696601430746,0.555874864306985,0.973739557672830,0.993618181950985,0.960456111875435,0.999999919342813,0.100311741634516,3.349356729775829,0.000227474511271,7.680343757487090,138.302539651670259,0.999986639934815,
0.002440000000000,0.031985697677921,0.100313817154528,0.999898664969508,0.000546775141857,0.004287405061879,0.117552379169809,0.368291100195043,0.001788882221112,0.697649918755008,0.558309125889043,0.974465575704221,0.993567104562539,0.960152624147099,0.999999917819413,0.100313817154528,3.349354104117662,0.000230302573662,7.680342308014398,138.302522085132892,0.999986511799643,
0.002450000000000,0.031896006505218,0.100315891977680,0.999897642248273,0.000515975252757,0.004131704769132,0.118269158528572,0.366939391955796,0.001799882027404,0.695613315213883,0.560706523832098,0.975167237557041,0.993515977528614,0.959848382376192,0.999999916257763,0.100315891977680,3.349351478717717,0.000233176952417,7.680340859178679,138.302504513439544,0.999986382066409,
0.002460000000000,0.031806595482340,0.100317966118805,0.999896611783698,0.000486915144071,0.003982410973571,0.118979827879504,0.365593954810741,0.001810851190834,0.693586769469674,0.563067425964671,0.975845194391259,0.993464800567228,0.959543382536482,0.999999914656749,0.100317966118805,3.349348853575696,0.000236098640457,7.680339410993052,138.302486937884481,0.999986250708851,
0.002470000000000,0.031717473929251,0.100320039593089,0.999895573673726,0.000459496291560,0.003839230829106,0.119684461257447,0.364254747831390,0.001821789958620,0.691570259357763,0.565392197579444,0.976500082262120,0.993413573402555,0.959237620714901,0.999999913015220,0.100320039593089,3.349346228691298,0.000239068660025,7.680337963469108,138.302469359733180,0.999986117700143,
0.002480000000000,0.031628650900895,0.100322112416070,0.999894528018146,0.000433625762845,0.003701886070291,0.120383132201264,0.362921730351434,0.001832698578922,0.689563761881683,0.567681201448205,0.977132522427936,0.993362295764984,0.958931093112503,0.999999911331983,0.100322112416070,3.349343604064215,0.000242088063768,7.680336516617047,138.302451780222810,0.999985983012872,
0.002490000000000,0.031540135192105,0.100324184603646,0.999893474918588,0.000409215899450,0.003570112234907,0.121075913736353,0.361594861969789,0.001843577300712,0.687567253208963,0.569934797837262,0.977743121651188,0.993310967391175,0.958623796045390,0.999999909605809,0.100324184603646,3.349340979694133,0.000245157935864,7.680335070445803,138.302434200562658,0.999985846619030,
0.002500000000000,0.031451935342400,0.100326256172077,0.999892414478519,0.000386184016962,0.003443657930294,0.121762878358395,0.360274102553372,0.001854426373660,0.685580708667765,0.572153344523289,0.978332472493182,0.993259588024118,0.958315725945623,0.999999907835421,0.100326256172077,3.349338355580731,0.000248279393198,7.680333624963157,138.302416621934526,0.999985708489988,
0.002510000000000,0.031364059640661,0.100328327137990,0.999891346803237,0.000364452122241,0.003322284140866,0.122444098018294,0.358959412239633,0.001865246048011,0.683604102744337,0.574337196809493,0.978901153602522,0.993208157413187,0.958006879362094,0.999999906019504,0.100328327137990,3.349335731723686,0.000251453586595,7.680332180175843,138.302399045493217,0.999985568596483,
0.002520000000000,0.031276516129704,0.100330397518381,0.999890271999860,0.000343946646753,0.003205763574398,0.123119644108234,0.357650751438840,0.001876036574474,0.681637409081263,0.576486707542052,0.979449729997610,0.993156675314194,0.957697252961375,0.999999904156690,0.100330397518381,3.349333108122662,0.000254681702107,7.680330736089644,138.302381472366960,0.999985426908593,
0.002530000000000,0.031189312610759,0.100332467330621,0.999889190177312,0.000324598195067,0.003093880044822,0.123789587448821,0.356348080836139,0.001886798204118,0.679680600476539,0.578602227126751,0.979978753343410,0.993105141489440,0.957386843528538,0.999999902245570,0.100332467330621,3.349330484777320,0.000257964962360,7.680329292709469,138.302363903657778,0.999985283395722,
0.002540000000000,0.031102456647855,0.100334536592465,0.999888101446308,0.000306341307676,0.002986427889406,0.124453998277264,0.355051361393388,0.001897531188265,0.677733648883472,0.580684103545765,0.980488762222674,0.993053555707764,0.957075647967937,0.999999900284681,0.100334536592465,3.349327861687312,0.000261304627963,7.680327850039433,138.302346340441943,0.999985138026576,
0.002550000000000,0.031015955572121,0.100336605322052,0.999887005919336,0.000289114237320,0.002883211418311,0.125112946236535,0.353760554350779,0.001908235778391,0.675796525411402,0.582732682374512,0.980980282401823,0.993001917744595,0.956763663303967,0.999999898272509,0.100336605322052,3.349325238852283,0.000264701998985,7.680326408082931,138.302328783770520,0.999984990769143,
0.002560000000000,0.030929816486009,0.100338673537913,0.999885903710633,0.000272858738035,0.002784044394652,0.125766500365468,0.352475621228261,0.001918912226030,0.673869200327245,0.584748306798551,0.981453827091665,0.992950227381994,0.956450886681778,0.999999896207486,0.100338673537913,3.349322616271871,0.000268158416498,7.680324966842696,138.302311234669588,0.999984841590670,
0.002570000000000,0.030844046267436,0.100340741258979,0.999884794936167,0.000257519866215,0.002688749543287,0.126414729089774,0.351196523826765,0.001929560782684,0.671951643057867,0.586731317630452,0.981909897203133,0.992898484408700,0.956137315367961,0.999999894087988,0.100340741258979,3.349319993945703,0.000271675264196,7.680323526320856,138.302293694140786,0.999984690457636,
0.002580000000000,0.030758651573859,0.100342808504587,0.999883679713610,0.000243045792988,0.002597158086687,0.127057700213899,0.349923224229246,0.001940181699735,0.670043822193269,0.588682053326603,0.982348981598198,0.992846688620176,0.955822946751200,0.999999891912330,0.100342808504587,3.349317371873399,0.000275253970089,7.680322086518991,138.302276163161622,0.999984537335734,
0.002590000000000,0.030673638846288,0.100344875294485,0.999882558162308,0.000229387627277,0.002509109306298,0.127695480913713,0.348655684801545,0.001950775228358,0.668145705490597,0.590600850003917,0.982771557336106,0.992794839818641,0.955507778342879,0.999999889678768,0.100344875294485,3.349314750054570,0.000278896008285,7.680320647438173,138.302258642685956,0.999984382189842,
0.002600000000000,0.030589014313220,0.100346941648844,0.999881430403258,0.000216499248924,0.002424450127960,0.128328137729974,0.347393868193085,0.001961341619443,0.666257259878947,0.592488041456389,0.983178089915096,0.992742937813117,0.955191807777658,0.999999887385494,0.100346941648844,3.349312128488815,0.000282602900848,7.680319209079021,138.302241133644401,0.999984224983994,
0.002610000000000,0.030504783994526,0.100349007588263,0.999880296559072,0.000204337151310,0.002343034729971,0.128955736562549,0.346137737337398,0.001971881123516,0.664378451464976,0.594343959171475,0.983569033509726,0.992690982419462,0.954875032814013,0.999999885030631,0.100349007588263,3.349309507175724,0.000286376219753,7.680317771441725,138.302223636944660,0.999984065681358,
0.002620000000000,0.030420953705271,0.100351073133780,0.999879156753948,0.000192860292932,0.002264724172518,0.129578342665336,0.344887255452503,0.001982393990664,0.662509245539301,0.596168932346264,0.983944831203938,0.992638973460400,0.954557451334728,0.999999882612234,0.100351073133780,3.349306886114877,0.000290217588942,7.680316334526093,138.302206153472042,0.999983904244205,
0.002630000000000,0.030337529059483,0.100353138306880,0.999878011113636,0.000182029957420,0.002189386047237,0.130196020641871,0.343642386041132,0.001992880470469,0.660649606583670,0.597963287903404,0.984305915219983,0.992586910765560,0.954239061347358,0.999999880128284,0.100353138306880,3.349304265305843,0.000294128686472,7.680314898331578,138.302188684089629,0.999983740633877,
0.002640000000000,0.030254515473860,0.100355203129504,0.999876859765400,0.000171809621518,0.002116894145766,0.130808834441578,0.342403092890818,0.002003340811931,0.658799498278896,0.599727350506763,0.984652707143315,0.992534794171501,0.953919860984642,0.999999877576687,0.100355203129504,3.349301644748178,0.000298111246777,7.680313462857311,138.302171229638901,0.999983574810759,
0.002650000000000,0.030171918171434,0.100357267624063,0.999875702837985,0.000162164830579,0.002047128146200,0.131416847356634,0.341169340073846,0.002013775263413,0.656958883513540,0.601461442576797,0.984985618143574,0.992482623521741,0.953599848504887,0.999999874955267,0.100357267624063,3.349299024441425,0.000302167063043,7.680312028102123,138.302153790939968,0.999983406734246,
0.002660000000000,0.030089742185173,0.100359331813445,0.999874540461575,0.000153063081133,0.001979973316435,0.132020122019421,0.339941091947074,0.002024184072572,0.655127724393321,0.603165884305614,0.985305049191739,0.992430398666781,0.953279022292297,0.999999872261767,0.100359331813445,3.349296404385115,0.000306297989705,7.680310594064576,138.302136368791992,0.999983236362707,
0.002670000000000,0.030007992361548,0.100361395721031,0.999873372767758,0.000144473710140,0.001915320233445,0.132618720400531,0.338718313151632,0.002034567486302,0.653305982251238,0.604840993671700,0.985611391273556,0.992378119464128,0.952957380857276,0.999999869493843,0.100361395721031,3.349293784578766,0.000310505945067,7.680309160742979,138.302118963973612,0.999983063653455,
0.002680000000000,0.029926673364033,0.100363459370702,0.999872199889480,0.000136367790543,0.001853064517586,0.133212703807301,0.337500968612509,0.002044925750679,0.651493617658386,0.606487086454297,0.985905025599335,0.992325785778317,0.952634922836676,0.999999866649058,0.100363459370702,3.349291165021878,0.000314792914068,7.680307728135414,138.302101577243178,0.999982888562703,
0.002690000000000,0.029845789676578,0.100365522786859,0.999871021961011,0.000128718032749,0.001793106581085,0.133802132882852,0.336289023538020,0.002055259110904,0.649690590435446,0.608104476247432,0.986186323810184,0.992273397480930,0.952311646994013,0.999999863724882,0.100365522786859,3.349288545713940,0.000319160951177,7.680306296239750,138.302084209339228,0.999982711045534,
0.002700000000000,0.029765345607016,0.100367585994430,0.999869839117892,0.000121498691726,0.001735351389913,0.134387067605600,0.335082443419177,0.002065567811254,0.647896859664818,0.609693474473560,0.986455648180767,0.992220954450608,0.951987552219635,0.999999860718683,0.100367585994430,3.349285926654423,0.000323612183459,7.680304865053663,138.302066860980858,0.999982531055854,
0.002710000000000,0.029685345290445,0.100369649018888,0.999868651496900,0.000114685479368,0.001679708238289,0.134967567289223,0.333881194028950,0.002075852095034,0.646112383703390,0.611254390396837,0.986713351818665,0.992168456573066,0.951662637530852,0.999999857627725,0.100369649018888,3.349283307842780,0.000328148813786,7.680303434574647,138.302049532868011,0.999982348546353,
0.002720000000000,0.029605792692548,0.100371711886269,0.999867459236000,0.000108255481854,0.001626090535117,0.135543690583051,0.332685241421441,0.002086112204528,0.644337120195909,0.612787531135995,0.986959778860394,0.992115903741109,0.951336902072017,0.999999854449163,0.100371711886269,3.349280689278450,0.000332773124230,7.680302004800037,138.302032225681842,0.999982163468464,
0.002730000000000,0.029526691612878,0.100373774623182,0.999866262474299,0.000102187081697,0.001574415601673,0.136115495472868,0.331494551930962,0.002096348380955,0.642571026088926,0.614293201676830,0.987195264664154,0.992063295854632,0.951010345114575,0.999999851180037,0.100373774623182,3.349278070960849,0.000337487479641,7.680300575727014,138.302014940085087,0.999981975772314,
0.002740000000000,0.029448045688101,0.100375837256831,0.999865061352001,0.000096459884222,0.001524604479939,0.136683039282091,0.330309092171028,0.002106560864431,0.640814057645302,0.615771704884285,0.987420135999375,0.992010632820635,0.950682966057062,0.999999847817268,0.100375837256831,3.349275452889377,0.000342294331408,7.680299147352620,138.301997676722380,0.999981785406677,
0.002750000000000,0.029369858395192,0.100377899815032,0.999863856010360,0.000091054648231,0.001476581750966,0.137246378673316,0.329128829033272,0.002116749893923,0.639066170459238,0.617223341514135,0.987634711233098,0.991957914553223,0.950354764425060,0.999999844357647,0.100377899815032,3.349272835063411,0.000347196221442,7.680297719673769,138.301980436220617,0.999981592318925,
0.002760000000000,0.029292133054593,0.100379962326231,0.999862646591629,0.000085953220598,0.001430275362732,0.137805569650204,0.327953729686278,0.002126915707218,0.637327319471810,0.618648410224270,0.987839300513264,0.991905140973607,0.950025739871118,0.999999840797836,0.100379962326231,3.349270217482307,0.000352195786370,7.680296292687260,138.301963219189332,0.999981396454977,
0.002770000000000,0.029214872833325,0.100382024819526,0.999861433239018,0.000081138474589,0.001385616466964,0.138360667559691,0.326783761574345,0.002137058540881,0.635597458986971,0.620047207585578,0.988034205948957,0.991852312010107,0.949695892174625,0.999999837134356,0.100382024819526,3.349267600145397,0.000357295761964,7.680294866389775,138.301946026220918,0.999981197759242,
0.002780000000000,0.029138080748065,0.100384087324686,0.999860216096637,0.000076594251676,0.001342539264424,0.138911727094501,0.325618892416181,0.002147178630227,0.633876542688010,0.621420028092429,0.988219721787637,0.991799427598146,0.949365221241637,0.999999833363583,0.100384087324686,3.349264983051990,0.000362498987824,7.680293440777903,138.301928857891113,0.999980996174565,
0.002790000000000,0.029061759668175,0.100386149872174,0.999858995309455,0.000072305306670,0.001300980858199,0.139458802295949,0.324459090203534,0.002157276209285,0.632164523654420,0.622767164172766,0.988396134589417,0.991746487680245,0.949033727104675,0.999999829481739,0.100386149872174,3.349262366201371,0.000367808412325,7.680292015848139,138.301911714759115,0.999980791642164,
0.002800000000000,0.028985912318699,0.100388212493171,0.999857771023243,0.000068257255957,0.001260881114561,0.140001946557010,0.323304323199755,0.002167351510771,0.630461354379159,0.624088906197803,0.988563723398438,0.991693492206020,0.948701409922468,0.999999825484885,0.100388212493171,3.349259749592793,0.000373227097853,7.680290591596894,138.301894597368033,0.999980584101570,
0.002810000000000,0.028910541283311,0.100390275219601,0.999856543384529,0.000064436528683,0.001222182530975,0.140541212625641,0.322154559938316,0.002177404766058,0.628766986786276,0.625385542491346,0.988722759911352,0.991640441132164,0.948368269979663,0.999999821368912,0.100390275219601,3.349257133225485,0.000378758226335,7.680289168020495,138.301877506245205,0.999980373490559,
0.002820000000000,0.028835649007231,0.100392338084157,0.999855312540544,0.000060830320707,0.001184830110871,0.141076652608344,0.321009769221261,0.002187436205149,0.627081372248866,0.626657359338734,0.988873508642978,0.991587334422446,0.948034307686487,0.999999817129532,0.100392338084157,3.349254517098643,0.000384405105105,7.680287745115204,138.301860441902448,0.999980159745087,
0.002830000000000,0.028761237800096,0.100394401120328,0.999854078639173,0.000057426551170,0.001148771244809,0.141608317973949,0.319869920117615,0.002197446056654,0.625404461607326,0.627904640995412,0.989016227089153,0.991534172047684,0.947699523578377,0.999999812762269,0.100394401120328,3.349251901211435,0.000390171173109,7.680286322877209,138.301843404836433,0.999979942799214,
0.002840000000000,0.028687309838797,0.100396464362428,0.999852841828902,0.000054213821531,0.001113955597696,0.142136259557602,0.318734981961745,0.002207434547767,0.623736205187896,0.629127669695146,0.989151165886821,0.991480953985741,0.947363918315562,0.999999808262451,0.100396464362428,3.349249285562992,0.000396060007483,7.680284901302642,138.301826395528963,0.999979722585030,
0.002850000000000,0.028613867170269,0.100398527845627,0.999851602258770,0.000051181376923,0.001080335001724,0.142660527564953,0.317604924351670,0.002217401904241,0.622076552821435,0.630326725657896,0.989278568971383,0.991427680221495,0.947027492682607,0.999999803625196,0.100398527845627,3.349246670152411,0.000402075330528,7.680283480387574,138.301809414447206,0.999979499032575,
0.002860000000000,0.028540911714253,0.100400591605985,0.999850360078311,0.000048319069714,0.001047863354717,0.143181171576522,0.316479717147337,0.002227348350371,0.620425453862422,0.631502087097342,0.989398673731344,0.991374350746829,0.946690247587922,0.999999798845401,0.100400591605985,3.349244054978752,0.000408221017110,7.680282060128030,138.301792462044034,0.999979272069756,
0.002870000000000,0.028468445266008,0.100402655680483,0.999849115437512,0.000045617325122,0.001016496523611,0.143698240552229,0.315359330468859,0.002237274108974,0.618782857208147,0.632654030228090,0.989511711160286,0.991320965560597,0.946352184063222,0.999999793917736,0.100402655680483,3.349241440041033,0.000414501102514,7.680280640519979,138.301775538758363,0.999979041622256,
0.002880000000000,0.028396469498995,0.100404720107059,0.999847868486751,0.000043067108792,0.000986192252769,0.144211782836090,0.314243734694710,0.002247179401371,0.617148711318059,0.633782829272568,0.989617906006198,0.991267524668609,0.946013303262961,0.999999788836620,0.100404720107059,3.349238825338231,0.000420919790786,7.680279221559351,138.301758645015383,0.999978807613449,
0.002890000000000,0.028324985967516,0.100406784924650,0.999846619376755,0.000040659896208,0.000956910076904,0.144721846161043,0.313132900459893,0.002257064447373,0.615522964233252,0.634888756467612,0.989717476918187,0.991214028083595,0.945673606463716,0.999999783596220,0.100406784924650,3.349236210869281,0.000427481463599,7.680277803242034,138.301741781226809,0.999978569964292,
0.002900000000000,0.028253996109314,0.100408850173229,0.999845368258539,0.000038387643842,0.000928611238328,0.145228477653925,0.312026798654078,0.002266929465261,0.613905563596056,0.635972082070773,0.989810636590598,0.991160475825182,0.945333095063540,0.999999778190427,0.100408850173229,3.349233596633067,0.000434190689682,7.680276385563881,138.301724947791172,0.999978328593233,
0.002910000000000,0.028183501248144,0.100410915893847,0.999844115283361,0.000036242761939,0.000901258608331,0.145731723840554,0.310925400419707,0.002276774671780,0.612296456669712,0.637033074366349,0.989897591904564,0.991106867919859,0.944991770581277,0.999999772612844,0.100410915893847,3.349230982628427,0.000441052234850,7.680274968520709,138.301708145094182,0.999978083416095,
0.002920000000000,0.028113502596299,0.100412982128680,0.999842860602670,0.000034218088846,0.000874816612449,0.146231630650937,0.309828677150081,0.002286600282118,0.610695590358090,0.638071999671152,0.989978544067029,0.991053204400946,0.944649634655837,0.999999766856771,0.100412982128680,3.349228368854142,0.000448071072684,7.680273552108303,138.301691373508902,0.999977834345967,
0.002930000000000,0.028044001257096,0.100415048921073,0.999841604368051,0.000032306866795,0.000849251159428,0.146728243424570,0.308736600487413,0.002296406509902,0.609102911225452,0.639089122340042,0.990053688747238,0.990999485308554,0.944306689045442,0.999999760915186,0.100415048921073,3.349225755308940,0.000455252395912,7.680272136322420,138.301674633395976,0.999977581293084,
0.002940000000000,0.027974998227335,0.100417116315594,0.999840346731176,0.000030502719067,0.000824529573682,0.147221606915846,0.307649142320871,0.002306193567184,0.607518365516200,0.640084704771217,0.990123216210746,0.990945710689553,0.943962935626829,0.999999754780723,0.100417116315594,3.349223141991488,0.000462601628537,7.680270721158794,138.301657925103996,0.999977324164697,
0.002950000000000,0.027906494399712,0.100419184358084,0.999839087843755,0.000028799628436,0.000800620531069,0.147711765299531,0.306566274784596,0.002315961664431,0.605941899174619,0.641059007411295,0.990187311450957,0.990891880597531,0.943618376394424,0.999999748445659,0.100419184358084,3.349220528900390,0.000470124438781,7.680269306613131,138.301641248969673,0.999977062864943,
0.002960000000000,0.027838490565199,0.100421253095715,0.999837827857481,0.000027191916851,0.000777493997805,0.148198762176326,0.305487970255700,0.002325711010520,0.604373457864562,0.642012288760200,0.990246154318218,0.990837995092750,0.943273013459476,0.999999741901886,0.100421253095715,3.349217916034182,0.000477826752893,7.680267892681121,138.301624605318182,0.999976797294702,
0.002970000000000,0.027770987415388,0.100423322577048,0.999836566923983,0.000025674226262,0.000755121172354,0.148682640578501,0.304414201352255,0.002335441812726,0.602812986989074,0.642944805375849,0.990299919646487,0.990784054242107,0.942926849049166,0.999999735140889,0.100423322577048,3.349215303391329,0.000485714769913,7.680266479358429,138.301607994463268,0.999976527351447,
0.002980000000000,0.027703985544793,0.100425392852095,0.999835305194776,0.000024241500531,0.000733474430145,0.149163442975578,0.303344940931265,0.002345154276722,0.601260431709922,0.643856811878687,0.990348777377610,0.990730058119086,0.942579885505675,0.999999728153724,0.100425392852095,3.349212690970221,0.000493794977442,7.680265066640708,138.301591416707623,0.999976252929091,
0.002990000000000,0.027637485453128,0.100427463972389,0.999834042821209,0.000022888968369,0.000712527270961,0.149641211280079,0.302280162086627,0.002354848606569,0.599715736967019,0.644748560956047,0.990392892683211,0.990676006803712,0.942232125285224,0.999999720930990,0.100427463972389,3.349210078769165,0.000502074168519,7.680263654523592,138.301574872343082,0.999975973917815,
0.003000000000000,0.027571487547532,0.100429535991050,0.999832779954418,0.000021612127248,0.000692254268868,0.150115986853315,0.301219838147083,0.002364525004710,0.598178847497706,0.645620303366389,0.990432426084238,0.990621900382504,0.941883570957085,0.999999713462799,0.100429535991050,3.349207466786384,0.000510559459685,7.680262243002702,138.301558361650820,0.999975690203892,
0.003010000000000,0.027505992144775,0.100431608962864,0.999831516745277,0.000020406728212,0.000672631024553,0.150587810511213,0.300163942674158,0.002374183671972,0.596649707855893,0.646472287943400,0.990467533568169,0.990567738948425,0.941534225202555,0.999999705738748,0.100431608962864,3.349204855020007,0.000519258310339,7.680260832073651,138.301541884901610,0.999975401669503,
0.003020000000000,0.027440999473417,0.100433682944362,0.999830253344347,0.000019268761555,0.000653634119939,0.151056722530186,0.299112449460099,0.002383824807559,0.595128262431015,0.647304761599987,0.990498366703920,0.990513522600829,0.941184090813906,0.999999697747883,0.100433682944362,3.349202243468067,0.000528178543490,7.680259421732038,138.301525442356024,0.999975108192535,
0.003030000000000,0.027376509675937,0.100435757993900,0.999828989901832,0.000018194443312,0.000635241074976,0.151522762653018,0.298065332525805,0.002393448609049,0.593614455466813,0.648117969332183,0.990525072754453,0.990459251445406,0.940833170693302,0.999999689478666,0.100435757993900,3.349199632128492,0.000537328368018,7.680258011973451,138.301509034264740,0.999974809646372,
0.003040000000000,0.027312522810824,0.100437834171755,0.999827726567529,0.000017180202511,0.000617430306483,0.151985970094783,0.297022566118750,0.002403055272397,0.592108231079898,0.648912154222956,0.990547794787136,0.990404925594131,0.940481467851692,0.999999680918936,0.100437834171755,3.349197020999098,0.000546716402593,7.680256602793474,138.301492660868661,0.999974505899674,
0.003050000000000,0.027249038854637,0.100439911540216,0.999826463490782,0.000016222669146,0.000600181088943,0.152446383548772,0.295984124710905,0.002412644991927,0.590609533278093,0.649687557445965,0.990566671781847,0.990350545165206,0.940128985407672,0.999999672055867,0.100439911540216,3.349194410077581,0.000556351701362,7.680255194187684,138.301476322399196,0.999974196816135,
0.003060000000000,0.027186057704025,0.100441990163689,0.999825200820435,0.000015318662838,0.000583473517151,0.152904041192440,0.294949982996663,0.002422217960340,0.589118305978543,0.650444418269253,0.990581838736876,0.990296110283001,0.939775726586319,0.999999662875926,0.100441990163689,3.349191799361513,0.000566243781599,7.680253786151653,138.301460019078490,0.999973882254230,
0.003070000000000,0.027123579177718,0.100444070108802,0.999823938704789,0.000014465182127,0.000567288470621,0.153358980693352,0.293920115890754,0.002431774368710,0.587634493025562,0.651182974058905,0.990593426772625,0.990241621077995,0.939421694718006,0.999999653364820,0.100444070108802,3.349189188848325,0.000576402653455,7.680252378680948,138.301443751119535,0.999973562066955,
0.003080000000000,0.027061603018481,0.100446151444521,0.999822677291554,0.000013659394381,0.000551607579664,0.153811239215137,0.292894498526174,0.002441314406484,0.586158038208221,0.651903460282678,0.990601563233135,0.990187077686717,0.939066893237181,0.999999643507452,0.100446151444521,3.349186578535307,0.000586838852025,7.680250971771136,138.301427518726427,0.999973236101530,
0.003090000000000,0.027000128895035,0.100448234242275,0.999821416727805,0.000012898626269,0.000536413193053,0.154260853423438,0.291873106252097,0.002450838261486,0.584688885277648,0.652606110513617,0.990606371785476,0.990132480251682,0.938711325681133,0.999999633287856,0.100448234242275,3.349183968419590,0.000597563471921,7.680249565417777,138.301411322094623,0.999972904199101,
0.003100000000000,0.026939156403939,0.100450318576085,0.999820157159940,0.000012180354774,0.000521688347198,0.154707859491856,0.290855914631812,0.002460346119921,0.583226977964047,0.653291156433666,0.990607972517005,0.990077828921327,0.938354995688725,0.999999622689141,0.100450318576085,3.349181358498137,0.000608588204596,7.680248159616439,138.301395161411079,0.999972566194415,
0.003110000000000,0.026878685071451,0.100452404522703,0.999818898733637,0.000011502198718,0.000507416736743,0.155152293107886,0.289842899440646,0.002469838166373,0.581772259993400,0.653958827837298,0.990606482030532,0.990023123849950,0.937997906999113,0.999999611693429,0.100452404522703,3.349178748767733,0.000619925378668,7.680246754362683,138.301379036854428,0.999972221915471,
0.003120000000000,0.026818714355341,0.100454492161767,0.999817641593808,0.000010861910761,0.000493582686541,0.155594189478837,0.288834036663898,0.002479314583811,0.580324675103869,0.654609352635157,0.990602013537412,0.989968365197640,0.937640063450431,0.999999600281773,0.100454492161767,3.349176139224970,0.000631588003531,7.680245349652073,138.301362948595141,0.999971871183151,
0.003130000000000,0.026759243646684,0.100456581575953,0.999816385884563,0.000010257369856,0.000480171124904,0.156033583337736,0.287829302494785,0.002488775553593,0.578884167061862,0.655242956857741,0.990594676948581,0.989913553130210,0.937281468978472,0.999999588434090,0.100456581575953,3.349173529866231,0.000643589816560,7.680243945480176,138.301346896795877,0.999971513810823,
